-0.036338017430949915,-0.08312106011571338,-0.033289748773860386,-0.011719232882340225,-0.00570463101160007,-0.062257277092099494,-0.05806484657073656,-0.018865445426768268,-0.017322358527411513,-0.04162506083917521,-0.00446374897269633,-0.0068599094001020045,0.01106426774743717,-0.09032134481056966,-0.011955782474843413,-0.017533635922201807,0.07210784204466825,0.0031364504444678087,0.00905896326224187,-0.00558232824075755,0.02353834979474112,0.033327390949497104,0.06320556135699862,-0.043897408831338414,0.00877695072026008,0.01744432673158791,0.0008232516301963644,0.036101279498559236,0.0031659386946245593,-0.042042955696084516,-0.012495158213338131,-0.11931805110858895,-0.017620833663773094,0.035686574577459274,-0.014085106808433778,-0.049174443966183645,0.042189105586845965,0.0043716991037138775,0.029756361810874488,-0.04850584890379539,0.01662755633291635,-0.046030250298092934,-0.02712924974206876,0.0027380927756463502,-0.03866509145077579,-0.3185619905699199,-0.06161092762906406,-0.09452127841059316,0.039709353563642136,0.08203653655991117,-0.011862380348849455,-0.0003701485482195399,0.00019103344381599108,-0.003247842188063843,0.004931978133747017,-0.10200192153388088,0.009522876831171034,0.12246378418516052,-0.05233152459567403,0.026468792918263595,-0.0625594021875972,-0.06450864134582565,-0.060751145985788596,0.013226383410264442,0.009240307787264146,0.008431607413994069,0.017368443654188992,-0.020012644807762547,-0.01881338400918134,0.008986951841754853,0.011478058994242424,-0.025925640144586315,-0.022073894125816007,-0.0030431065762895337,-0.0017450278898662464
-0.06174258281449803,-0.11150894642118037,-0.06711924088442144,0.018043759690340277,-0.022064097570613977,-0.08968013475259493,-0.09029187389179197,-0.02940643362449341,-0.006658849187311355,-0.005809271946677172,-0.012887514997791283,0.03227742058683161,0.04745563395664358,-0.14008203881596637,0.06829498005530896,-0.006900290455838065,0.07741697547807824,0.019835549745003733,0.006449865910679087,0.006991803090941384,0.03826575617142125,0.02693870151980704,0.0810456023118602,-0.03217217334232336,0.032059044761527544,0.06539689001787807,-0.016922600010807143,0.02080088165786409,-0.0004896631749415903,-0.03269752337268628,0.016036265392111226,-0.11803944327980564,-0.003987639964237677,0.09818244042053303,0.09385578847447329,-0.10954529660140677,0.08476023161763979,0.032256509234861064,0.08098460356955572,-0.06695778895364102,-0.03947560129915273,-0.10249570120915652,-0.041852947455845446,-0.0049536880987633425,-0.06245727038064269,-0.3592313433871255,-0.017138841796135895,-0.11568654297564623,-0.0041176552569868186,0.12311582814891053,-0.015459744497108019,0.02666547573672884,0.01010221547085674,-0.016585615952275257,0.0873025127067375,-0.10819702824259636,0.014859928231411468,-0.009156544715512971,0.0691601387610915,0.003850425134097335,-0.06224802306935731,-0.06963102982912917,-0.052889775521734655,0.0023792101384115805,0.005320532532110733,0.0021858345263450207,0.00916748334916867,-0.032010407196970736,-0.020303097545433385,-0.00902356895044154,0.010625221613501212,-0.05129856344556938,-0.018241812379312217,-0.010733577706114716,-0.037511304325652695
-0.08128226057137104,-0.13476367746677906,-0.09483527858690585,0.042821404079812164,-0.036506882846542965,-0.11163175479173662,-0.11727598821020938,-0.036817034778924784,0.0020962182337943003,0.024005025676991726,-0.019618558618602178,0.06555969487625937,0.07747560906411301,-0.18137140008226976,0.13572738081512695,0.0022427865839396155,0.0818132277557776,0.033867790992748004,0.0026856696352260956,0.01854589539891993,0.05102392991961602,0.02149898325727595,0.09601848139452973,-0.02388491482418964,0.05061736771473868,0.10539195327037731,-0.031020382140190317,0.0069954988781472105,-0.004194060023909318,-0.023914708201576707,0.039528559741562774,-0.1144490509530861,0.0025102969551591414,0.1522693104242393,0.18502541212072832,-0.15886673086959557,0.11990794602058685,0.05516588499368369,0.12140719475997874,-0.08368394518287503,-0.08532644647914078,-0.14951110724956496,-0.05447449903202706,-0.011213220145411318,-0.08118302812123368,-0.3912341083337577,0.021350414014269847,-0.13132312956351821,-0.043384802054883986,0.1579176197789719,-0.01833089541198546,0.04815556760507639,0.01809529296478815,-0.02828433374005579,0.1541342640970106,-0.10916405392392547,0.01918164938371722,-0.1175401324773642,0.17070695722251317,-0.017950405480195053,-0.061829937012688296,-0.07426291306414068,-0.04709374778130726,-0.006883903477485298,0.0019089728751829904,-0.0034169056353301475,0.002082779121590661,-0.03996456408016749,-0.02097610444538242,-0.02360338997433653,0.009072762356566233,-0.07170705660023674,-0.014768532847187321,-0.01786503042977111,-0.06751400664287535
-0.09312828516236213,-0.15025662173918902,-0.11391788707625733,0.060903448090668416,-0.04793663834799655,-0.1261075574278776,-0.1361181044520894,-0.04034512962683251,0.008691458633948212,0.04547930685767024,-0.02362880491606756,0.08992742777187779,0.09865869166694653,-0.21043403465208727,0.18442809175179894,0.009270157771989362,0.08422201439887533,0.04385798955500925,-0.0018137226087548974,0.027696797450456723,0.061677343225581494,0.017701998389143436,0.10718361504445462,-0.020428986801440563,0.062160013861439434,0.1337025396825624,-0.04074685070889272,-0.004285188510952387,-0.0073157126964300545,-0.01697049743127088,0.0575356050909166,-0.10845544006680208,0.0020450615762113156,0.19392948299206625,0.2509404999274325,-0.1927018503483507,0.1455795303672941,0.07071193369886897,0.14628444346796854,-0.09780688692568118,-0.11589362734588349,-0.1829636813184663,-0.0641540838976905,-0.015158769993612875,-0.0917573651733935,-0.40598400842889626,0.05024119286153439,-0.13886211256165593,-0.07525670185965166,0.18185829621094152,-0.020225926931388527,0.06145224218126827,0.02312160364802493,-0.03740270181209027,0.19838208953124847,-0.10302865805792139,0.021942190043457016,-0.19113195028781596,0.24246691972360968,-0.03653867780952463,-0.061461077754195265,-0.07760354367805392,-0.045225305743947314,-0.014138972224559454,-0.0005503558243491469,-0.007958074084626454,-0.0030170490762183033,-0.04248275345243602,-0.02038043605263673,-0.0335253138770365,0.007125541523661405,-0.08485834075107221,-0.01142848458917245,-0.024083630903822817,-0.08860564780821337
-0.09900257872129883,-0.15856930226164212,-0.12430916405839045,0.07261766503721831,-0.05527099898222318,-0.1340471635170769,-0.14715202802316676,-0.04098479758208279,0.013422928548231516,0.058994310911701736,-0.02607764554362127,0.10562759869481042,0.1120386306211263,-0.22844303029513527,0.21502457990161553,0.013810938217818758,0.08441188689379087,0.04968217640804845,-0.00570682933132638,0.03370208318022394,0.0711364652656129,0.01590649880004058,0.11455785400137286,-0.01992288458233238,0.06707620507754586,0.15062640274153805,-0.04772482935771427,-0.012363402142256952,-0.00933618579533757,-0.013520250770940878,0.07095265366770354,-0.10283023546518044,-0.0010078916455530385,0.2222258184689999,0.2925794379083362,-0.21341330498761346,0.16283381179899847,0.07929801929101671,0.1565590838678208,-0.10842950193857182,-0.1311676368300193,-0.2014534719486087,-0.07102014436218129,-0.016653599208549086,-0.0940095347007655,-0.4009971633588199,0.0679389219201677,-0.14032402999771887,-0.09859845272181955,0.19253489560946346,-0.021470193703952783,0.0665746979793233,0.02519618904724255,-0.04343767498785467,0.2203937339379014,-0.09319055355305927,0.0232072792937926,-0.22982062041206058,0.2850216929158921,-0.04807211376291837,-0.0618815325355746,-0.07885654921030291,-0.04775657187972021,-0.019754039845467752,-0.001981966386680134,-0.011398352462086203,-0.005875279358493191,-0.040670950864516636,-0.018986034199242302,-0.039416770713796595,0.005831063974259865,-0.09129270243723897,-0.008369677965223643,-0.02904582378944759,-0.10080676875322264
-0.10139622580522653,-0.16156845786404478,-0.12712740983152576,0.07831302837369145,-0.058002039398046795,-0.13681381149359434,-0.15180242926587725,-0.039686793341276894,0.01612145087565478,0.0654828617236671,-0.029458177453542483,0.11378783524334557,0.1192393843178338,-0.23790333032689084,0.23038068761585953,0.015253629854792172,0.08316040452834317,0.05187198551920552,-0.00768428230316287,0.03694451387544673,0.07958719438830297,0.015848579286508735,0.11780209192048208,-0.018899560177291108,0.06671020190666455,0.15789152404608708,-0.05371386062341732,-0.017296336556435254,-0.010308378375902483,-0.014455601696683584,0.07906793517946431,-0.09958575970580474,-0.00258219869955878,0.2368932941760784,0.31414523753468837,-0.22497151937663862,0.17255881457624278,0.08235437899875991,0.15524219597299627,-0.11438296934825498,-0.13355409474094648,-0.20408545418227136,-0.07528097449542015,-0.016178452207549154,-0.08934904771285879,-0.37819705941065473,0.07654635136054677,-0.13878632669042817,-0.11418948850801813,0.19069345710987373,-0.02250768976826656,0.06496803410323893,0.02487939920553303,-0.046101218505839925,0.22346649799310747,-0.08396278977359639,0.023360402431188837,-0.23982622797912467,0.30282713085079505,-0.05133026789984163,-0.06369550755685457,-0.07806023516081426,-0.053329490470777285,-0.02365758563036352,-0.00275371005775904,-0.013877109337716131,-0.00674535105436197,-0.03630185271492359,-0.0176118566857717,-0.04226722019490983,0.0059652764972834005,-0.09296637640337402,-0.006122019116404365,-0.03225917103610065,-0.1059313470547261
-0.1031825396632293,-0.16110826407723727,-0.12490255954330397,0.07922427333750157,-0.05750490836350994,-0.13575061229805302,-0.15132401793782063,-0.03755504757692152,0.01710259298254757,0.06655444225723656,-0.034739052009642335,0.11519914909070722,0.12151352054421997,-0.24091067548942705,0.23422432844248528,0.013383376480759934,0.08181072965017844,0.05143168839762319,-0.006491265678510327,0.037958836250997385,0.08665046680725264,0.016993048629514673,0.11722010079231626,-0.01574978897706758,0.06240907384999306,0.1580477516421922,-0.059562136603889426,-0.01970022262433957,-0.010249123331080745,-0.019252943380319798,0.08219424314793611,-0.09850873343826672,0.0007984255480546487,0.2395820363739598,0.3194469907384435,-0.2309173878826966,0.17665094648964275,0.08144380637042598,0.14701451423853118,-0.11571751629177696,-0.1272070361657348,-0.1930168451805762,-0.07704041162724728,-0.014287853678503937,-0.0796272599988525,-0.34057215021506126,0.08163515366399043,-0.13550706483335545,-0.12435382747225493,0.18191838403197913,-0.02352293695888416,0.05916904909942711,0.02286898010128055,-0.04557533960066473,0.21335681139381413,-0.07578975269829968,0.022893458622512852,-0.23162259769755908,0.3010086858515393,-0.04975761660175598,-0.06656101009193047,-0.07614186318524951,-0.06011187603098661,-0.025163609300384693,-0.0032164841608728345,-0.015528472725881315,-0.006027227608944863,-0.030976580438229262,-0.01656426713068171,-0.04294221498858733,0.007777089846021212,-0.09204808615990023,-0.004685280574522388,-0.033354718611665,-0.10637245468808607
-0.10729248131590309,-0.1589947336142093,-0.11989550926756994,0.07756454598676893,-0.05565635761312501,-0.1324866216508587,-0.14739942198219808,-0.036280750486445634,0.01704763766529771,0.06402428829457943,-0.040983838617586976,0.11156307101119745,0.1202155081144247,-0.2394662946969047,0.23100849094263684,0.00884265594029865,0.08179428141413114,0.0497493933794077,-0.0020015974913413226,0.03696036739615072,0.0922888660242217,0.019299939392565912,0.11447075558149866,-0.011430710858348125,0.055825722420130175,0.1546889915565871,-0.06469263435839989,-0.019830025862140777,-0.00912919483466701,-0.0256799508060912,0.08169107210998716,-0.099825508586733,0.00911960305842141,0.2336847367041155,0.3133044679918836,-0.23541478813002203,0.17741192293910724,0.07838052098961656,0.1372113732817425,-0.1137735252796237,-0.1174513983104245,-0.17324310282953748,-0.07644443478624274,-0.011448271463823267,-0.06747588191044562,-0.2957130420521228,0.08477026288994616,-0.1314515331197053,-0.13097176295741625,0.17535009685788738,-0.02452784829121618,0.051798427542994074,0.019998025908801342,-0.042500545310476534,0.19765882180298922,-0.06686990030082518,0.022284992794310537,-0.21716375393222867,0.28599978298205464,-0.047557081815426616,-0.06924008514028171,-0.07376431614695272,-0.06641213030704538,-0.02363065565910394,-0.0034152428639399046,-0.016575508130674987,-0.004348115059664315,-0.026183690639355356,-0.01592747288788937,-0.04201613926715311,0.011136450766845829,-0.08997087217211946,-0.003871953147036422,-0.032201409359600086,-0.10456456751947005
-0.11430503973344466,-0.1561142856454416,-0.11293045072677192,0.07472512829526637,-0.053356954901061376,-0.12815410027858512,-0.1412520889335598,-0.037107985790798215,0.01594187077415024,0.05862153551839769,-0.04664842265393376,0.10495142136539559,0.1165539973562348,-0.23462924775659125,0.22364619238414887,0.0030694434770579537,0.0835693530427225,0.048253311021207945,0.0038541359331890623,0.034310172132376304,0.09633354854274989,0.02275774799990271,0.11162391366845503,-0.00720427878608243,0.04846664217397478,0.1509942606818363,-0.06752252722644625,-0.017642053212547748,-0.007126246671233516,-0.030337709425609316,0.07806559466099905,-0.10404259516948333,0.016908501811648935,0.22150239471717004,0.30043137233968775,-0.24131054540179253,0.1754312446926205,0.07454945436056903,0.12840012667299983,-0.10975827850531117,-0.1083373545977494,-0.14969682297336517,-0.07392256725678048,-0.008349585896374634,-0.05554916985065422,-0.25268600054061546,0.08143213989984166,-0.12768497837170306,-0.1346089840742572,0.17746624617483686,-0.025500016069363196,0.044696155101090096,0.01703736551792423,-0.03819348992035121,0.1823142128153954,-0.05566509711449075,0.021680214507443785,-0.2044467875543589,0.26403834327746356,-0.04700442171197289,-0.07023723344868132,-0.0710326211696693,-0.07026117218602393,-0.018812014980492398,-0.0032930978409988487,-0.01724139602759245,-0.0024294185461819495,-0.023113574730032505,-0.01590506448941334,-0.039616848341873956,0.015563143293713999,-0.08715216064664322,-0.003950397091189439,-0.0289737953760551,-0.10232664695707075
-0.12241889910233089,-0.1524485795108631,-0.10504236259963096,0.07133774106660554,-0.051449780790725985,-0.12360195997820907,-0.13316622824732968,-0.04041514414299441,0.013677160863821564,0.05095647626590699,-0.04992530978090859,0.09638612205975405,0.11168224682237689,-0.22671378054236177,0.21285691660561615,-0.0019327246555952415,0.08614726845822529,0.047985492836191634,0.008582751112898412,0.030584030789730376,0.09803151957385292,0.026777947434000637,0.1106610415816095,-0.0035917988388374233,0.041230331905072415,0.14850214980782983,-0.06728991171881282,-0.013346914439411606,-0.004052567389044137,-0.030830076426967445,0.07335972747045683,-0.10967352080644188,0.018692377349390665,0.20475429809806067,0.2835357995886425,-0.2485607574492188,0.1717301327484625,0.0705589727738638,0.12139698923844866,-0.10477702944305445,-0.10137180512166688,-0.12718777433596207,-0.07067146557841453,-0.005591818272039417,-0.045088637249534325,-0.21404236701726315,0.06864441900581097,-0.12454548918052943,-0.13524141238023613,0.1871158756626724,-0.026344707345437812,0.039529733140651446,0.014428642200688485,-0.03478748458987879,0.1698717381967576,-0.04164589339181601,0.020889028745770366,-0.1949302357745643,0.23992982786287975,-0.04880521336688287,-0.06856614937286673,-0.06843230117962285,-0.07034667322697499,-0.011249670215461416,-0.0027586090175063527,-0.017567528793105303,-0.000543261739077594,-0.02277360168567641,-0.016524315200488304,-0.03614187476596656,0.020804166926677137,-0.08384163868639441,-0.005289341402048897,-0.024572430327121864,-0.10063787902860266
-0.1297747251759641,-0.1486423091899301,-0.09779719867081788,0.0680719602385493,-0.05086841426468117,-0.12014624772166763,-0.12403825209762585,-0.04601441385208921,0.01065414014167243,0.04248928634076704,-0.04991653613170735,0.0870298047840724,0.10705079098759952,-0.21696810131157862,0.19942630607435444,-0.004571127842460387,0.08787506577953053,0.04919498261858385,0.010668504413194557,0.026504464637387648,0.09687597385127322,0.03083609140127397,0.11292997489870849,-0.0010068545428979503,0.03514369006892193,0.147692971076252,-0.06438681263403467,-0.007330238372174502,0.0006699738518334275,-0.027247058973103866,0.07123539420032732,-0.11398230013853405,0.0128441165979023,0.18651230202808533,0.2651707798711953,-0.2562471993566733,0.16904438211562245,0.06706251204697905,0.11843289082753361,-0.10018822263096816,-0.09630651578867766,-0.11020681531954568,-0.06831260740832001,-0.0033938254606949436,-0.03662088238629779,-0.17895142297591127,0.04698574309490411,-0.12290291697346184,-0.132420756933662,0.19804824316773295,-0.0269189734381379,0.03760698635551574,0.012399437853385514,-0.03386251346903435,0.16132171684329266,-0.027622067796077565,0.01979424365227994,-0.18614348594873914,0.2186412420378686,-0.05063176838108824,-0.06390158609520286,-0.06689035123149256,-0.06712303619013983,-0.0024001751124780313,-0.0017204634806122776,-0.017586256877485495,0.0012386460256023635,-0.02608099635544489,-0.017826133081052048,-0.03276682031462633,0.027333898727793682,-0.08073748881451626,-0.008010303414059616,-0.02045983075314045,-0.09988801562609356
-0.13460444816054795,-0.14580838488340553,-0.09179385055327759,0.06480800515116047,-0.05155407896549627,-0.1184830850186397,-0.11533432859682657,-0.0528650306965302,0.007196523687084094,0.03442042109966734,-0.04761249387580105,0.07860091347888126,0.10350207281410297,-0.20679270671146072,0.184476540346889,-0.004651183907338652,0.08700771901733129,0.050998036680590164,0.009363457109329731,0.02320767239056154,0.09312159029390721,0.03479440110780829,0.11801295603321182,0.0006305705991581645,0.031226872404747752,0.14837964006983306,-0.058944416373600816,-0.0002463947783839515,0.006940257599672095,-0.02135377861293808,0.07274771542881642,-0.11463536279767461,-0.00016813395888926053,0.16979112312799127,0.24774237700496105,-0.2627727350980928,0.16864302936761244,0.06475771003200748,0.12106246750893179,-0.09640476124046415,-0.09181579012708319,-0.10035459161505922,-0.0675082472687194,-0.0021393321364801543,-0.030933568505122855,-0.14992184064168174,0.018949132986868622,-0.12329814845350523,-0.1255145164865461,0.20394462218252074,-0.027085357934109877,0.03881343118206404,0.01105746919189124,-0.03515176790038932,0.1570198374318149,-0.01813966887951668,0.01844645466463768,-0.17581613244566469,0.2043478928693132,-0.04778028419056496,-0.05616044530370437,-0.06692636967529894,-0.062435454401323365,0.0061867839939633296,-0.00043744642148701995,-0.017449960932588326,0.002496401105713697,-0.03294572629136819,-0.020221077637992274,-0.030735370204719253,0.03575786773156109,-0.07855839606119275,-0.012118187518755763,-0.017824100232415263,-0.09963303602258636
-0.13520541621844395,-0.14402815542792868,-0.0871391658808805,0.060907833549996765,-0.05281733355611812,-0.11804214761107261,-0.10766794142949407,-0.05956278189116593,0.003890952768847017,0.02733183456392757,-0.044154671201740575,0.07151590390483326,0.10083323249796904,-0.19633350910861141,0.16855265046001702,-0.002842843398151995,0.0820455773822909,0.05186551367227138,0.004488554471269723,0.021856018262307764,0.08747163931936353,0.0384879653350948,0.12443618170507409,0.0018476573241048566,0.029489187848703913,0.14971090238514817,-0.05135231101801274,0.006541398366935569,0.013536797571692571,-0.0153836871123193,0.07666197438246025,-0.11015293105331425,-0.016681539144451474,0.1568117378555155,0.23120893090292394,-0.2648161219244366,0.16999413688857312,0.06370332192740263,0.12812920269142913,-0.0924755507739855,-0.08678131627601038,-0.09692593365676194,-0.06756363718151093,-0.0022721040713303275,-0.027984698535016728,-0.13032718694885248,-0.0074646468416443845,-0.12345308499997548,-0.11505969353259116,0.20124767117332243,-0.026709064519973874,0.041975613679091084,0.01030298571460797,-0.03718976267882579,0.15642626385944958,-0.013145353031914775,0.016861470184679067,-0.16455623481956547,0.19755583289513245,-0.037708884921012376,-0.04561916976719649,-0.06826091798344472,-0.058876552174950886,0.013427094500324754,0.0005562782559023205,-0.017249536034454338,0.0028046484555265816,-0.041902262293391696,-0.024071898287437332,-0.030841890211138256,0.0462448451634514,-0.07777641785838871,-0.0172978301868133,-0.01719543498420184,-0.09874713380646843
-0.1317459795899858,-0.14279464329040498,-0.08419766353825003,0.056743873835242875,-0.05399784826817433,-0.11815242103050011,-0.10133882126879298,-0.06548635531389096,0.002065570337603684,0.021710409675045117,-0.03990576891719505,0.0652655654903821,0.0987443365629345,-0.18565788133904942,0.1531272122195639,0.0002911344347666933,0.07315166014136665,0.05102386552104726,-0.0031437646191457835,0.02284739706578276,0.08080646174250528,0.04181114832043231,0.1314225995808237,0.002417079244726117,0.029339224423349797,0.1511791174430862,-0.04337552450004534,0.011463100415112226,0.018680163303900876,-0.010926429173493069,0.08187005820000948,-0.10103512845688445,-0.029758146002001662,0.14984481999741195,0.2150919654576452,-0.26047392613152365,0.17339603619951183,0.06380101249073183,0.13867513711678003,-0.08771455908953862,-0.08215794324695092,-0.09907195453783113,-0.06753385154781233,-0.00347164084719942,-0.026533034537391087,-0.12112084185682331,-0.02239062351006038,-0.12091971078347347,-0.10296459993059331,0.19070111460230488,-0.025768726388667923,0.04565867504930887,0.009893799890912491,-0.03843440215099414,0.15940941968873223,-0.008400791476036229,0.01508500018817338,-0.15500569413718554,0.19593320480941312,-0.02080353613003888,-0.03375475712490428,-0.06968933538955108,-0.058734765679469725,0.018452724594146153,0.0010390984316304142,-0.01710145657212614,0.0019341660873269384,-0.05118601539976406,-0.029421329069392876,-0.033618412641144124,0.05860523714148891,-0.07866399886246397,-0.02272353430124724,-0.018329308937949707,-0.09668657639429368
-0.1261545884272085,-0.14184268076076356,-0.08241549261016284,0.05300967257087946,-0.05404784318538361,-0.11801348688770957,-0.09701253592968734,-0.07021137394646648,0.002381195546896253,0.017396307838026176,-0.035626732513692166,0.06001064131702866,0.0967512967749188,-0.17544088441716227,0.14067077152829469,0.004121955673530797,0.06279532923917552,0.048877408668628164,-0.011655907461115556,0.02590167920264097,0.07379166657268443,0.04474387256498691,0.13856969226515625,0.0021339382730205525,0.030320803196724477,0.152874143479104,-0.03637014621826429,0.013750745673229425,0.020754752842147672,-0.007659081902094744,0.0861231060719142,-0.08977961895488673,-0.03573623014863969,0.1492152776431186,0.2011141274845859,-0.2516382278151648,0.17883700101834776,0.06527734307520427,0.15275113369539217,-0.0823902555676097,-0.08018165816498757,-0.10382608328333787,-0.0668201560351891,-0.005022699702026567,-0.025335092931009162,-0.12196659105562468,-0.024170004121862432,-0.1160725966752722,-0.091125050636015,0.1755433281472657,-0.02436360093565454,0.048432269149332574,0.009558138220216394,-0.0377628629015343,0.16542533728511621,-0.0008293021937725298,0.013318018643378116,-0.14790326410115653,0.19659874552675694,0.0018720488989059092,-0.02319193690593413,-0.06944013622270104,-0.062383425075026255,0.020765046855348412,0.0012303005257541244,-0.017395793911206492,-0.00042257288258068515,-0.059344946762197925,-0.036320566529977866,-0.03901523561656359,0.07189553851717212,-0.08081732348161846,-0.02744455879588631,-0.020186455517799184,-0.09404192433644248
-0.12019744492625975,-0.14041361122502083,-0.08074778455462478,0.04949800583703595,-0.05211185152460979,-0.11619289327230986,-0.09463957617271315,-0.07232318597368653,0.003997958002435326,0.013598437813162029,-0.03203254433183744,0.05580333231078158,0.09376991851765983,-0.16587404955286944,0.13232760646126343,0.007711919198434836,0.05373551866796911,0.04612615418720406,-0.018353593032577553,0.030352911868748556,0.06670505877537092,0.046899540776820015,0.14487689354156308,0.0018981003909827043,0.031793176070902374,0.15450858546209667,-0.0300271505793126,0.013409300233947374,0.01916715488228804,-0.003982612107019778,0.08690621322286929,-0.07851617426311264,-0.03602380571875363,0.15243127214586272,0.191151066912999,-0.24100098030091127,0.18443630319968518,0.06783284084498292,0.16943014392629352,-0.07666564453462033,-0.08181153785364925,-0.10614172332413119,-0.06473795560045603,-0.006486090863871197,-0.023138408468668104,-0.1302930335832529,-0.017055848318498934,-0.10968853885054664,-0.08129597278899886,0.15800999221261325,-0.022509813956126168,0.049899412649831554,0.009037260034962968,-0.03497923075231646,0.17136862547581844,0.011094444211175114,0.011739277898045797,-0.14058790543293986,0.19666603767889212,0.027805246065000455,-0.016196916061992694,-0.06673445238495507,-0.06845033550996082,0.02077907127305051,0.0014612693847519953,-0.01850990684404452,-0.004223514331575917,-0.06513063193983454,-0.04487143820674544,-0.04604405365195105,0.08419842185386905,-0.0831008696140916,-0.03050179611074333,-0.021720409705029253,-0.09172747185062224
-0.11559493075716795,-0.13766171157951282,-0.07938208970255298,0.04601235681334631,-0.04855594536036409,-0.11215297836112402,-0.09362516257621602,-0.07047470709001213,0.005963717895901277,0.009998542633659901,-0.028923452119309356,0.052284211332387615,0.08929269018283405,-0.15691865744763933,0.12824997447078604,0.010393440385454755,0.04743134700897411,0.043307621227219484,-0.020620445918954733,0.03492692352336291,0.06017420775020699,0.04782752557126657,0.14922548502637645,0.0021396941414530968,0.0330140567685987,0.15556644359511507,-0.02424220488194362,0.011006429299075027,0.01483019491120774,0.0005392337049888729,0.08474995299001631,-0.06874896826222199,-0.031618899497513064,0.15725699605679044,0.185853741652643,-0.23033686403845383,0.18869028368483942,0.07040445686422697,0.18745222251727867,-0.07057130606538697,-0.08626670391567137,-0.10344862253601006,-0.060523348779764286,-0.007225826001063473,-0.018762968967210858,-0.14312698527073042,-0.0030150724350184177,-0.10204284490254778,-0.07547537602561671,0.14045561282952923,-0.02029442293333697,0.051430529009889314,0.008227969444802113,-0.031020779254797737,0.1736492584548509,0.027424793275458992,0.010428725062181482,-0.13020746791861204,0.19482001913958713,0.05272423798937981,-0.013894337574027998,-0.06297798033715732,-0.07564637723266157,0.019614201217345195,0.001907979942094129,-0.0204343109820867,-0.008706556797068554,-0.06792922512647476,-0.05507698243010292,-0.0533624671474405,0.09380924713610894,-0.08450185793977469,-0.031019218881107813,-0.022674824451386688,-0.09043458583240718
-0.11426908219628887,-0.1338143003448813,-0.07871582082339706,0.04248211450640285,-0.04417127110651298,-0.10697198172146727,-0.09389056093680467,-0.06500726915548488,0.007728679785127979,0.00641967697753873,-0.026501437386873328,0.04983712483552402,0.08376961920855704,-0.14884803742203745,0.12864809885764503,0.012019306248947204,0.044529420575407874,0.040871202714498234,-0.017699083612849775,0.03820093581218409,0.05531846906373883,0.047786810431253324,0.15050370136929392,0.0021812247736157087,0.033705671098657186,0.15595803812068465,-0.019914659230829468,0.007770587566574894,0.009332094599373897,0.004507633405894107,0.08154591204691763,-0.0623945181854858,-0.022914693252816698,0.16221606772215413,0.18570779210321298,-0.22149693458428799,0.19120547120288323,0.07216848612109811,0.20575120627526333,-0.0645410266388663,-0.09163093643165998,-0.09619016733598673,-0.053991592765942786,-0.00645286218362201,-0.01245453306699329,-0.16091344095042653,0.016015094249349326,-0.09449287721554644,-0.07447601695989925,0.12738094154539725,-0.01815810746735,0.05453995036360504,0.007252880060155065,-0.027352479250578376,0.17016747048674197,0.04515874147103538,0.00947128033136388,-0.11655733228304535,0.19296969683890508,0.07293248929971535,-0.016524270071726632,-0.06069966258640458,-0.0832365508588543,0.018419098156655933,0.0023073890798775976,-0.02292420194472722,-0.012908772613506037,-0.06815385148604408,-0.06670844983817073,-0.05959135636810989,0.10013224999844617,-0.08439237978301853,-0.029112365668185647,-0.023344105965885764,-0.09059563129186773
-0.1164893085750072,-0.12900897246340784,-0.07830140272111266,0.0379358532201656,-0.03975639847894927,-0.10172171736783187,-0.09481232222512684,-0.057494635690108375,0.008462636240474414,0.0022161582182509687,-0.025681069174375126,0.048635038780283274,0.07757159135135876,-0.14109146754387936,0.13208828104415185,0.012709326836690349,0.04482206169392744,0.03900125555867934,-0.011156488352819127,0.039709986986999124,0.05260415680644415,0.0474073189616383,0.14731297100039165,0.002006435023151787,0.033794530034450876,0.1556388595381759,-0.01766962952417339,0.004943651226579249,0.003941209892519448,0.006589675289083052,0.07774444417757531,-0.05950190131664779,-0.012635842568792799,0.1649044345848215,0.18991906150865334,-0.2150419019234729,0.1912904473343755,0.07275505636254098,0.2229757758655122,-0.058877379080696124,-0.09538585473892502,-0.08552590468172672,-0.045789786649582886,-0.003928375158073427,-0.005418508645881059,-0.1820794018653526,0.03482180242223809,-0.08759198822452763,-0.07687876548025979,0.12185490397540755,-0.016540835146320876,0.058982697320970334,0.006300719005086802,-0.02555482366450268,0.1596307415136905,0.060980556271818975,0.008843787308594225,-0.10170193793704971,0.19393828310536876,0.08547335686160862,-0.02321568604504845,-0.061593742610003055,-0.09036299031002504,0.018104419822100926,0.002015619716388195,-0.025623591839450177,-0.016048349345435697,-0.06698688998552274,-0.07884553784017378,-0.06294255517922148,0.10320800433716637,-0.08229376982708272,-0.02620056519914682,-0.02417514907646201,-0.0920559544430104
-0.1208673090910094,-0.12252095035427293,-0.07836176277931797,0.03154832637033528,-0.03678728960869426,-0.09689368160006459,-0.09491709532432457,-0.04990573278181831,0.007687061112813837,-0.0024169122578565627,-0.026325998609143947,0.04764092575354614,0.07113623479217583,-0.1327345304777868,0.13540928323132026,0.013022674857396388,0.0467890846618485,0.037513668374340836,-0.0032506337727992163,0.03991058337560427,0.05165955513320286,0.04688417147923574,0.13916801477577923,0.0023631328494154724,0.033266033937622064,0.15447126141338197,-0.017738615737496133,0.0033155599054437435,-0.0002948836052276693,0.007020807757329384,0.07444727190915734,-0.05717235330377346,-0.002732472084465143,0.16386785501025924,0.19607265586624056,-0.20977912808828236,0.18880382691874487,0.07211792358043534,0.23908456480884965,-0.053885796512450845,-0.09670611855880329,-0.07375874850070196,-0.03705945392931942,0.000337104306855629,0.0017306378469546524,-0.19787229162778225,0.04907283860366052,-0.0803644980064614,-0.08034072341061915,0.1227696572612309,-0.015469779464451938,0.06310401908681612,0.0055935112242678775,-0.027054234141177025,0.14316079776344381,0.07343737448358789,0.008390100770956282,-0.08880818627829007,0.19958019924109316,0.0881704532987182,-0.032144173450721125,-0.06570522206284399,-0.09631078534420993,0.019095398695136268,0.0006840228856311859,-0.027879445100726374,-0.017679453688336344,-0.0660228503666602,-0.0898967729323224,-0.06202488695949243,0.1035449502541248,-0.07840853484396762,-0.023896613973938496,-0.02572156829643424,-0.09402991047625639
-0.12608054961686846,-0.11434944088834967,-0.07991819933641034,0.0237337892889829,-0.03619338541498765,-0.09293364056581448,-0.09378625185821268,-0.04448210876219777,0.005668856869241623,-0.006191269733151747,-0.027543342557801442,0.0463425673085473,0.06533321362479379,-0.12425900103067243,0.13665215068491696,0.013827676858106042,0.04874390424677166,0.036122558685604156,0.004156679306364985,0.039316194157045126,0.05203794914127191,0.046280598974045906,0.12734915102842426,0.003553782072642897,0.03270247470993992,0.15268797938220025,-0.020159338764064283,0.0033802022872659876,-0.002572558810171377,0.0073920457362742775,0.0738336151655008,-0.05313969388333506,0.008105704265773728,0.16024340944911786,0.20304337801939532,-0.20501992955602022,0.18427908905261725,0.07109595420538484,0.2543795481967299,-0.05038456841471228,-0.09770207641807782,-0.06378531850969704,-0.02906717225906652,0.006249329530804426,0.008498826269608906,-0.1994773313997722,0.05648507749188636,-0.07391147128993059,-0.08316993672869777,0.12802293328555925,-0.014781430216378677,0.06475332091642044,0.005472501063947005,-0.03191698237671281,0.1256776589304045,0.0802195547857173,0.008054734878946146,-0.07996705292608125,0.21230084163347884,0.08273330557637126,-0.04130281047081616,-0.0717267845406345,-0.10078998529939877,0.02121933498213502,-0.0013938334844089129,-0.02885425424575938,-0.01805251236203287,-0.06664974263393203,-0.09860526590007893,-0.05739265681611985,0.1023764872967865,-0.07386706903707987,-0.023070967869549597,-0.028233367043371538,-0.09560862747807977
-0.13035344934119578,-0.10556691941055829,-0.08320278319747854,0.015072378471990888,-0.03709467015791937,-0.08954755658790425,-0.09209399987487202,-0.04282882176757297,0.0024932985843425792,-0.008502657912506609,-0.0291598724201676,0.04503501203973606,0.06056842154170354,-0.11633811710453074,0.13561526733716897,0.015461501850369763,0.04989926435950798,0.03450595035268683,0.00963060972525076,0.038273433685406366,0.05309941681707597,0.04606013269546583,0.11365855784466239,0.0060357610154029295,0.03280411822663554,0.15033966497062035,-0.023910401971505513,0.0051091223663231045,-0.0030033256565340505,0.00929139799767753,0.0759360803318001,-0.04749134958919332,0.021065877629370844,0.1553291145913468,0.21097074643265745,-0.2000113021450295,0.1770127251869048,0.070850954844759,0.26513936852439224,-0.048613555282733034,-0.10027756357392947,-0.05694165438342236,-0.02289869449322035,0.01298705783236459,0.013923658283837625,-0.18504859212404873,0.056461297684915146,-0.07172954708801998,-0.0846263322428143,0.1364447086693824,-0.014346508647948397,0.062255441704385184,0.006179522510444013,-0.03823666885390242,0.11283663109144004,0.0785072247147438,0.00786403004216385,-0.07379173875722986,0.2329490883765829,0.07442109937886238,-0.04868165653128115,-0.07789799209445164,-0.10347124664986777,0.024351148297285685,-0.0035907629852055534,-0.02793346107286221,-0.0178762467743962,-0.06912717411527511,-0.10468715234543155,-0.051356157736353075,0.10118991231363417,-0.0697931933988119,-0.02386772264668041,-0.0312803144565032,-0.09599411235229968
-0.13145688876538422,-0.09716431870743075,-0.08808293297971263,0.006174355274741611,-0.03842984520004522,-0.08577308151450551,-0.09040992190907923,-0.04507259651194001,-0.0016987338618407455,-0.00940432464361779,-0.030871715913892817,0.04322052715022598,0.05681980473218602,-0.10852175545760454,0.132537875186411,0.01774117887021287,0.04961064622475986,0.03240571602531922,0.012582982648682184,0.036939545703980614,0.05412023577090985,0.046676614205015676,0.09946254433629442,0.010690651193615452,0.03355154525117798,0.14686240107323634,-0.02735150497733707,0.00800865358471392,-0.002521560412619306,0.012948614019154259,0.07921154209840497,-0.04056659232647852,0.03495889330185398,0.1496010969880509,0.2190061976298039,-0.1928004464870084,0.16615613543808583,0.0715924779992454,0.2658125188029872,-0.04769951046931398,-0.10377911508760973,-0.05411250238630261,-0.01908130841506095,0.019424311820867124,0.017569647689055112,-0.15707614731675346,0.05323702810391506,-0.0757118604391322,-0.08479591776006473,0.1466868024586303,-0.01400107389739741,0.05601359397385969,0.00755996939423606,-0.04350728306699203,0.1078211472625561,0.06874245646896948,0.007759761529416737,-0.06783690792833524,0.25693826935291164,0.06752173671716916,-0.05262741514399069,-0.08273697615480691,-0.10421647106521388,0.028744265268722757,-0.005184945218041803,-0.024933403145805944,-0.01748607390819984,-0.07258591834859021,-0.10846710759006223,-0.046714620368512344,0.1011017861355219,-0.06669741867766077,-0.026157831411600996,-0.03416952952871061,-0.09455676385593567
-0.1289136975537238,-0.09005637767604749,-0.09451959740670791,-0.0013660486390448257,-0.04019339690957438,-0.08158332177265482,-0.0897858437727546,-0.050391685332896785,-0.005939507656506027,-0.008669072211327636,-0.03198460649048268,0.040431411031160214,0.05457895473579301,-0.10064385260786554,0.12851274893491713,0.020548524379624733,0.047166999397709186,0.030183242556154732,0.013182117743199107,0.035371936083246736,0.05501570620868479,0.04821304124116854,0.08587680732623248,0.017271097758066012,0.03479482718789617,0.14217836938925799,-0.029653655597729367,0.011727886056278392,-0.0017622770838826574,0.01766901591533543,0.08273671128723992,-0.03270602737225203,0.04685005413032495,0.14420237629765897,0.2264554641898343,-0.18283191990412406,0.15312518510111728,0.07298919728533243,0.25620324507799863,-0.04703046864630511,-0.10654293640623902,-0.057058865440864026,-0.017277415454942657,0.025025385972757164,0.019642205040723726,-0.12071866636192963,0.05157975999273412,-0.08455071699680394,-0.08421947347433067,0.15750415200992396,-0.013664872132000211,0.04806818938983276,0.009171201354949449,-0.04612905169189485,0.11125122717860025,0.05376996892235031,0.007647850099901682,-0.061947129794024475,0.27781639110588363,0.06426625966362126,-0.052756941881313496,-0.08526035991529933,-0.10365781022760782,0.03443835165622433,-0.005572631300751696,-0.020383171805270384,-0.016702375021875326,-0.07599573491583056,-0.11056594582878587,-0.045734396781555664,0.10254159261914686,-0.06475866776635994,-0.02998795131061377,-0.036453425758386615,-0.09114023961925344
-0.12402586079945131,-0.08515281481730058,-0.10099689873491591,-0.006167559384077481,-0.04232196452680714,-0.0777014798780216,-0.09160766679970916,-0.0575392358211812,-0.009287942301115543,-0.006835294057173813,-0.03281521650685154,0.03725381366487329,0.05401979974984979,-0.0930751995731055,0.12475038351204012,0.02360184719440328,0.0428395876070663,0.028605734610336497,0.011635485975683424,0.03414161866427812,0.055870330080294184,0.05049411731404496,0.0732939190915406,0.024166750046259344,0.036464917154864884,0.1365802666631294,-0.030488580024943923,0.016048541694758445,-0.00021494304485558668,0.0228769299746292,0.08545978040779201,-0.0251415944097253,0.05277532750532998,0.1398038069948423,0.23278383820036386,-0.17102318841017505,0.14010175252028823,0.07492177322042848,0.2410139318288138,-0.0466339612096176,-0.10658539249025056,-0.06530610931269853,-0.016305871707694486,0.029387584755496354,0.020236083447062403,-0.08428209477791404,0.049372104346356305,-0.0951896175602514,-0.08291304240658504,0.16715093823572158,-0.013412803694182629,0.04032869580194315,0.010603447610956274,-0.04589152551657838,0.12114034907366522,0.0361991767995643,0.007410912637601491,-0.056441168227300303,0.2922895008111325,0.06584442567068188,-0.0499111633489511,-0.08514474373536915,-0.1026988393747603,0.04085682731455792,-0.004558521386556991,-0.01574109182322081,-0.015199254803110407,-0.07865889027187989,-0.11179803244172687,-0.04882018018109083,0.1048186896503327,-0.06407818774701893,-0.0353342194164899,-0.03798093949792697,-0.08617851709075433
-0.11827732318512538,-0.08263953848948286,-0.10501485328448176,-0.008492495200774788,-0.04436167722847503,-0.07424709310534329,-0.09570527683941772,-0.0650157555331976,-0.011475180303516214,-0.005257146002563884,-0.03398173065196711,0.03387606269120699,0.054107251311666035,-0.08540123989192189,0.1210175767134812,0.02659745827421711,0.03758912957631699,0.027859519792293785,0.0084709992815436,0.03427765005001526,0.05631983014958819,0.052884937572902024,0.061228490861978235,0.02970239542296005,0.03784620733967614,0.129551301761884,-0.02940461406552064,0.020277519625528484,0.0033129098296269532,0.027815288053923526,0.08733861294643752,-0.018558577029422096,0.05100019822832713,0.13606820795658314,0.2344387921358171,-0.1566196608397652,0.12827295201422173,0.07717674104675959,0.22500179080152027,-0.04643154193249521,-0.10160321233719272,-0.07468183473235579,-0.014814601782462189,0.031930865073318715,0.020003726956546897,-0.054371246080996194,0.04302053179399812,-0.10445473261353083,-0.08063428804194944,0.1725931393507394,-0.013246324377483049,0.034675496314460486,0.011609128283688458,-0.04399189918495572,0.13272432410617852,0.019399027493824383,0.0068555737941878025,-0.051252660858902066,0.29853567848288876,0.07128137977453392,-0.04517480294562126,-0.08258304846239431,-0.1018089565976451,0.04686931077334949,-0.0023365878524335137,-0.012638411865647625,-0.012507142744149102,-0.0802489046445613,-0.11274624802320235,-0.05420944290853291,0.10624512491405358,-0.06481770522021033,-0.041376518020935726,-0.03896038754401093,-0.08036945247296537
-0.11376093993806527,-0.082470356217205,-0.10518403355057859,-0.009006966741190572,-0.04602648804767892,-0.07115129403881477,-0.10053921265301821,-0.07185734743064565,-0.012266004704243355,-0.0043539026445488516,-0.035256873858343835,0.029914119888604096,0.05387776285810862,-0.0772971415992128,0.11722571807691598,0.029983198908798303,0.032169584479867286,0.027506394978574933,0.004835628237058187,0.03630051235473841,0.056261200234807296,0.05436452989776064,0.049530361926450106,0.03288122121157311,0.038283730951799155,0.12084473250662975,-0.026583786682940147,0.0233190743113032,0.009130527447967496,0.03151449318887878,0.09162746690821466,-0.013107685058191154,0.04544164379125615,0.13419919654123147,0.22663003551219296,-0.13936003668653174,0.11910294936343802,0.07941304537134686,0.21257987810084544,-0.04654509422824327,-0.091172416908878,-0.08106803589972522,-0.01218134692135564,0.03271848571520575,0.020354339421726597,-0.03435436023671057,0.03529044359930689,-0.11043901608303452,-0.07824365029524222,0.17239057047082296,-0.013154905437268216,0.03278783586888362,0.01215900981628637,-0.04200963699434612,0.1411823336874648,0.007555799950429654,0.0058728012353581605,-0.04806658053373908,0.29460315405379967,0.07789333597547943,-0.03962269644824776,-0.07805868921690495,-0.10124327464654273,0.0510521371839856,0.000613436251996391,-0.011828014235031659,-0.008410943664985682,-0.08104651441946473,-0.11360780603570461,-0.05970670210062168,0.10534094547678285,-0.06714746571763838,-0.04680945797507968,-0.039838918993259864,-0.07467212491295902
-0.11286713566916869,-0.08498210507405032,-0.10093345012336759,-0.007997073388309087,-0.04678718092890449,-0.06871461053065707,-0.10493601613517985,-0.07780352748169433,-0.011624235665984167,-0.004142443070514298,-0.0365346545356858,0.02595435813928698,0.053057817047484176,-0.0697101597803938,0.11446257884280578,0.034454019164320226,0.027690603779312317,0.027114293091281383,0.001415789571437176,0.04000273724918113,0.056136864289009325,0.05425629421126532,0.03854103345976756,0.03397066217106992,0.038304542791102625,0.11176340073388458,-0.022980464083058427,0.024460341558584786,0.015724800303897668,0.033500612867458424,0.1019994490565731,-0.0098272457758114,0.041570593088976815,0.135688948226534,0.2090057635086312,-0.12247543481442913,0.11404186315817222,0.08117956346367383,0.20634912808748962,-0.04717897580389396,-0.07756969178964557,-0.08246443068316944,-0.008686545964104453,0.03239318316399875,0.022011906314648555,-0.027076639786958512,0.03147931422616701,-0.11276686728923446,-0.07671004756058308,0.16775301001673282,-0.013354569507146086,0.034546821374884795,0.012557732152189194,-0.040187301581803836,0.14397842393857863,0.0030649278149834647,0.004625705419678966,-0.04892084613027545,0.28044243887159526,0.08401380921186208,-0.03446317507835331,-0.0723342912929118,-0.10118947907255155,0.05238705245496139,0.003557302740023305,-0.013134779843812838,-0.0035674238697417926,-0.08157274672322445,-0.11444143833286854,-0.06411897325384561,0.10174209723724192,-0.07088374950830137,-0.050947096617226406,-0.040747941257194664,-0.07058849274542692
-0.11565910221982226,-0.0895120033581509,-0.0925771975898377,-0.006456386795089725,-0.046221602415523394,-0.06698249063443652,-0.10801034139559743,-0.08232659526406161,-0.010143040557387795,-0.005446238343205442,-0.03774920661815609,0.022867641893093288,0.051343871968929936,-0.06361016122895877,0.11266846558370033,0.03995621391836979,0.025724595021831553,0.026453586207814295,-0.00226380490248701,0.0450358393906074,0.056203503794234444,0.05256024124423875,0.02813065755721833,0.03430935041600458,0.03889033114625706,0.10406489975175659,-0.0195491605642637,0.02351874567140222,0.020974820071694933,0.033473189590387475,0.11855823528621667,-0.008730885148762857,0.04052927070055112,0.1390442274512027,0.18574710687767437,-0.10887176420639721,0.11343144957255247,0.08146959714205193,0.2046558934502788,-0.04761706399372134,-0.06340870693365097,-0.07817325938385622,-0.005198620733656623,0.03139558867832104,0.02491577527583455,-0.030703636326418704,0.034816175988694686,-0.11135539272190353,-0.07572725673881381,0.1590488615705511,-0.014018922097002479,0.03848185383448427,0.013277595349211774,-0.03742161432015123,0.14016371739008193,0.005823252572334292,0.0034385582769762557,-0.05367521296647157,0.2583780653575113,0.08905443235108523,-0.030450557901300523,-0.06633845399130442,-0.10138165745078068,0.05083436180439638,0.005862065857999865,-0.015827119726430472,0.0009527336209212423,-0.08163217705796341,-0.1150275993137474,-0.067185183374012,0.0961053964166596,-0.07546915387209027,-0.05381948499481182,-0.04152619315210515,-0.06950336343596675
-0.1199775092010246,-0.09390096968663222,-0.08268205993147534,-0.005638135690029564,-0.04488821874116797,-0.0660866242111429,-0.10900278051108464,-0.08492262442651471,-0.008225035225423005,-0.008517441098562964,-0.03775819495412214,0.020663794307592853,0.04883573744484389,-0.059529681180707866,0.11019735250829185,0.045976943835854045,0.026936914790310018,0.025641732674463513,-0.006883487186394754,0.05084252590318261,0.05653673545971294,0.049899182518614804,0.01802886128865644,0.034432676632914716,0.04038639640879493,0.09871578757392918,-0.017127182019627152,0.020853225818262433,0.02410599911286826,0.030995695459806183,0.13850822359867732,-0.007743004112339302,0.04147533137147186,0.14180536973814117,0.16217819309722958,-0.0984042584458813,0.11789129273655341,0.07923300491136437,0.2050999172265634,-0.04698380577399153,-0.050313252079124404,-0.06942599426957896,-0.0029051454882912386,0.030308360233321452,0.029023581926704067,-0.03619381731327953,0.04733550039157408,-0.10630677659204768,-0.07496446205831186,0.1453567180715183,-0.0149979235151812,0.043703076359218884,0.014611766182696106,-0.03295164415623553,0.13074516585409024,0.014086049069755635,0.002570377197038176,-0.06120623339873352,0.23215150763840586,0.09267069278468687,-0.02759986850429258,-0.061399160729925295,-0.1011552980810337,0.047007236954152265,0.007424338273577247,-0.018848634615154403,0.0042843978537003835,-0.08041243819209676,-0.11460191309815862,-0.06908846187936826,0.08997764915519735,-0.0801346629598845,-0.05562361972777735,-0.042261482894136726,-0.07181559144917737
-0.12362825798974274,-0.09631675095947217,-0.07454312584440548,-0.0058334915333141946,-0.0431952348556775,-0.06676680470697147,-0.10814252901036413,-0.08611144638818025,-0.005998209006765398,-0.012728777573551897,-0.035725179311282135,0.01954977789316409,0.046303669469482736,-0.058079680460044886,0.10617245020075958,0.05181227638829278,0.030596155998064978,0.025200501910939532,-0.012499372135509668,0.056529904634309514,0.057470267863598656,0.0473645111828801,0.0084291892975501,0.033567661982599084,0.0424848052192105,0.0955298678113331,-0.0160460769080909,0.017924563211569544,0.025742187985284715,0.02665529469597039,0.15694154097959778,-0.005766397461471562,0.04486120288721507,0.1432659724234222,0.14385600257362396,-0.09046170054341252,0.1274650220549859,0.07456712555287259,0.2069295974062938,-0.04535977495027044,-0.03946690536112574,-0.05928096549271611,-0.002624664707435831,0.03006155736120797,0.03382039421826788,-0.036227186882350715,0.06815985053953288,-0.09941658314178159,-0.07438403473742705,0.12785157149743065,-0.01602303086450363,0.04946048775170436,0.016586434959861174,-0.027399639390443875,0.11927770963101303,0.024783290710377992,0.0021232476982892268,-0.07026342451233847,0.20630452723106552,0.0958206200449302,-0.025471248005370567,-0.05917277652532932,-0.09969391929861114,0.041515458152291684,0.008508756588142319,-0.021442927327373518,0.005703119646424504,-0.07745859683309603,-0.1121014866659055,-0.06974021084596879,0.08532584735872151,-0.08374342403692031,-0.0566967199747089,-0.04317515399363575,-0.07699966103433117
-0.12416066779859555,-0.09610302343598406,-0.06967374160902909,-0.006922879660742218,-0.04064546155451637,-0.0691354380992311,-0.10589497694537683,-0.08657688114713691,-0.004221001443375838,-0.018286622617661494,-0.03254691870443191,0.019785954505898234,0.04395968414682626,-0.05880832002168815,0.10042502572998854,0.056178259320136315,0.03518460064576323,0.025491401135871172,-0.01881563522983698,0.06136728627176635,0.059070033770757924,0.04588653635615114,-0.00028455881475963896,0.03149947548901155,0.044207967336006404,0.09290429650446697,-0.015522843088154437,0.016515334251101077,0.0266974574403952,0.022573087199648345,0.16736684402173885,-0.0031777026017749677,0.050569398807818744,0.14359196755904224,0.13438124573462062,-0.08532302992665608,0.13921487639416175,0.06848283414543371,0.20814381322474218,-0.04276423313725575,-0.03137960662191808,-0.05028921033023692,-0.003992037523347758,0.031013176986350255,0.03850783770763422,-0.02992365046468526,0.09279238166975146,-0.09308589047414045,-0.07323297338332013,0.11001018839561527,-0.016796745928489648,0.0540018025852414,0.0189114756779043,-0.022367510977011396,0.10953762580335624,0.03490209202786898,0.001927469124598541,-0.07839159387049419,0.18424546092681426,0.09928347468447729,-0.02332904939208119,-0.06052234402433676,-0.09631205507397468,0.03453590884598362,0.009360767843073492,-0.023640614969619667,0.0048451321414119675,-0.07289148823938169,-0.10654407372953859,-0.0682207352999726,0.0831806741315414,-0.08494896641560032,-0.057340230104807766,-0.04430036066258014,-0.08367631785185903
-0.11944582930527053,-0.093372204100447,-0.0682861140273873,-0.00864017682267973,-0.037415487594166935,-0.07230952125698521,-0.10194815175955323,-0.08644433565129189,-0.003738124710870816,-0.025585987045398884,-0.029334301049673384,0.020514891961015663,0.04126797783541937,-0.06032727623838752,0.09248702021662661,0.057780169556265415,0.03856776272865359,0.02636640242158167,-0.025270673191555515,0.06456492936720892,0.060883189043578256,0.04582063316480922,-0.007501215298080344,0.02882476394779976,0.04411250214826956,0.0889286336049192,-0.014757929731190611,0.01712876820724163,0.027573479157330216,0.020775964270705716,0.16693592159420012,0.0009374185177049021,0.05783197844743038,0.14353017922698708,0.1325893652016178,-0.08330787501553272,0.14968374118257977,0.06184991318635835,0.20628666172505739,-0.03872818441319803,-0.025957993338707408,-0.04390131275670195,-0.0058465251773757165,0.03285309167655409,0.04309090330493959,-0.017442568443281514,0.11808255992731864,-0.08787876444959747,-0.07127541259749032,0.09552397637468935,-0.016902741144563915,0.05594708794377362,0.02100712412360281,-0.019174960805768082,0.10387589825457155,0.042723338986990766,0.0015070826882849497,-0.08345226333539399,0.1670508213298506,0.1015495736333204,-0.02085962481094847,-0.06498215482861375,-0.09114563805668169,0.025461804373639763,0.01022050524696827,-0.025816559565354336,0.00206445833948532,-0.06718628252479114,-0.09731805332607835,-0.06391507123259554,0.08299031063374707,-0.0829506605472067,-0.057489253831119635,-0.04561260968012998,-0.0898442482971972
-0.10999496450648184,-0.08916739702727644,-0.06989330639958538,-0.010100869258632822,-0.03448852599046018,-0.075688420162372,-0.09651941243550427,-0.08611307775247595,-0.004632994877551561,-0.03370157838975214,-0.026630501644761884,0.02104943677015203,0.03804558671223822,-0.062336047837106445,0.08299398643465691,0.05603145704007262,0.038672673435113714,0.02748945567067379,-0.030789292443057392,0.06503467799286289,0.06276572523359458,0.04722147749484651,-0.012707109360697522,0.025583956742882386,0.041456517235239354,0.0833175691562339,-0.013867805464125249,0.01956537484253429,0.028613194137627085,0.021843903969919864,0.1587738795250735,0.008032351960417516,0.0664778546762117,0.14428283008378473,0.13507284415909304,-0.0839465314181751,0.15776952252970233,0.055380404017080664,0.2018395077593983,-0.033483441256506485,-0.023602071194001262,-0.04115684721370494,-0.007244417104014356,0.03531760666204292,0.04767724728259015,-0.0016052541488036365,0.1426362775163409,-0.08444062527974727,-0.06962971673082824,0.08738389955039416,-0.016046849291998205,0.05570311276705703,0.022419544430383798,-0.018011129565274953,0.10317990748909112,0.0469424758055077,0.00042229413528943605,-0.08557546641029029,0.15555870466189103,0.10141291971149291,-0.018857119069618455,-0.07128491221053959,-0.08501945237755724,0.013335975608439521,0.011270935511457525,-0.028083379008515985,-0.002052531014781478,-0.06119884807089024,-0.08476968694496675,-0.05802020840964156,0.08339500703975378,-0.07794061458783788,-0.05716385188213002,-0.04700440315633114,-0.09390751580450352
-0.09819580602959094,-0.08497704047893073,-0.07254948635296786,-0.010820376279402036,-0.03191993204243601,-0.07880398198070493,-0.0909332056158921,-0.08598196710620726,-0.006848452182373066,-0.041449628324977436,-0.025225635889292247,0.021769969588763816,0.03437732540853421,-0.06526198308947762,0.07338459924245036,0.05078094450356618,0.035180988186026996,0.028452269183641243,-0.03412075632519096,0.06255140469408516,0.064887280769367,0.049708063486790355,-0.01647648000686297,0.021686375875635044,0.036560930876473274,0.07701410910403439,-0.012861685436129755,0.024183831169463765,0.029386959738014196,0.0254518040286833,0.14690785377032367,0.017972247550737896,0.07546302410903472,0.14503818700906967,0.13941123085186502,-0.08413001272093457,0.1630616787741418,0.049715022294182176,0.19605544479856785,-0.027787930928344973,-0.024849159488048556,-0.041277667921261085,-0.007508480093082914,0.03785749865045973,0.05177324420232843,0.008358367496350216,0.16216611755780086,-0.08487789519772337,-0.06909190700401252,0.08547431670177696,-0.014345409104593143,0.05494482696659425,0.023063473950550556,-0.01841811310834085,0.10556402259673991,0.04767359130288573,-0.00139567177309316,-0.08473513173260017,0.15104628040899382,0.09977031574801665,-0.018689427831664968,-0.07787342435231293,-0.07866789778635785,-0.0018824355817121385,0.012404414218859294,-0.030121385436995496,-0.007196310076204526,-0.05591848919301132,-0.07036895248145253,-0.052563879761997334,0.08306718647394584,-0.07079087597370765,-0.05667641867477169,-0.0482563476392559,-0.09525444830542965
-0.08629647018637801,-0.08150148506729396,-0.07406966138067775,-0.011279270447615397,-0.02932096753410826,-0.0807712877275935,-0.08619149821155067,-0.08569720138722564,-0.010266887735061486,-0.04816467177798309,-0.025202387000208354,0.022850855126423847,0.03023067583335172,-0.06868867194561198,0.06388445918738786,0.0429049432867854,0.029809678553288532,0.028769026442563794,-0.03448139127917549,0.0582169853203246,0.06706416564127193,0.051997398143109996,-0.019957466970107807,0.017738367248632758,0.030076905877897908,0.07096175604188748,-0.011583347659920529,0.030986812674719366,0.02939193150294417,0.030819624718024352,0.1341630471835309,0.030418369026479875,0.08350380718536754,0.14338467999831828,0.14403795366192174,-0.07794990977938476,0.16557349764817386,0.04497412030695663,0.18842524488590617,-0.021983557411736743,-0.02932769244379374,-0.04145890569488864,-0.006150778512164279,0.03929255262757886,0.05545717320351806,0.00687001424529643,0.17129740219802092,-0.08905173743326217,-0.0701453676160459,0.08541611770737223,-0.012186674734342456,0.05603278106009668,0.02300004366391703,-0.019878399002959846,0.10688050509593405,0.048054256541320894,-0.003686492408287556,-0.0797026391734234,0.15273063443262935,0.09719255368509438,-0.02130892854536326,-0.08333174263256954,-0.07297221143239145,-0.019129984608406092,0.013453458731865986,-0.0312289997441918,-0.012888140519274394,-0.052287148582841,-0.05586563201996603,-0.048704590940153336,0.08124141293635345,-0.06274437221201315,-0.055915077196909246,-0.04955937632180957,-0.09404989557990312
-0.07665099529041787,-0.07891917492958736,-0.07351464709176049,-0.011540006132392436,-0.02723799848401373,-0.08145030342523524,-0.08314826024636437,-0.08519737697759927,-0.013976978621652952,-0.052827668962803734,-0.02530856354176278,0.024216664831749946,0.02609906215538914,-0.07205403514761502,0.05442595779921028,0.03495387951642437,0.024882891868401424,0.028296820082557794,-0.03196952832195221,0.05320442250092683,0.06903900022264664,0.05257253592411726,-0.023450799361887542,0.01413816581713978,0.023058764135629573,0.0665764266809824,-0.01068993884939684,0.038475974271794056,0.02880621279732909,0.03641692124558382,0.12343547944984468,0.04535433367592956,0.09158763513404045,0.13964188212682083,0.14890140989436873,-0.06167881490710536,0.16757056104622947,0.041132019792046226,0.179637082231626,-0.016369915144074265,-0.03609215920973474,-0.03989949338222887,-0.0035002771172704117,0.03866822417974386,0.05921159347359839,-0.0006684658282158917,0.16802463417530833,-0.09366173805837985,-0.07409440989577937,0.08322587130143555,-0.010011818649536625,0.06131726861528147,0.022334076568514716,-0.02164368799609695,0.10514305601665985,0.04993135692712136,-0.005988084758895423,-0.07144689259576087,0.15802694488141722,0.09362607822718638,-0.02648005039152404,-0.08669353760747935,-0.06919917426197932,-0.037338588347171964,0.014421838999868486,-0.030798984428679566,-0.01827530606581107,-0.051289226325247655,-0.0427824215607559,-0.04676916304717543,0.07807828760241498,-0.05525742357294172,-0.0543319579622345,-0.051416992933664696,-0.0910581999223129
-0.07111768582062025,-0.07755389671911356,-0.07010126983480525,-0.011301408997181572,-0.02629682651241036,-0.08170762702191432,-0.08308405662258993,-0.0851149167081896,-0.017151112550142372,-0.05456213546678913,-0.02468085355228916,0.02610992717314392,0.022639377892798088,-0.07512739185372824,0.04591385931678246,0.029371625082484476,0.02240219793754561,0.027403509146524063,-0.027764524723018047,0.048243662592905134,0.07083605050740027,0.0508014764760093,-0.026543704700730086,0.010821330727642464,0.01709594104860568,0.06513267268866874,-0.010684939185859221,0.0443264191394982,0.028029494566607305,0.04061686234698669,0.11594579450956632,0.061309222137728825,0.10089871711466669,0.13659648030466753,0.15551390188962788,-0.037492196227716934,0.171446673631088,0.03864617985157065,0.1729451228644937,-0.011388655708173268,-0.043188630669273476,-0.036409066818938185,-0.0006582632690080858,0.03560575496941987,0.0626270962354265,-0.006634415372553937,0.15230748923139636,-0.09514318442109304,-0.08107360668573044,0.07906573190059774,-0.008298927494212183,0.07119225308214516,0.021253062202548995,-0.023111178721348824,0.10194921043505312,0.05043264913608125,-0.007837383553671334,-0.06242707238273798,0.164758477040703,0.09072037746286754,-0.032614383652989465,-0.08758718708985638,-0.06821784802642525,-0.055782540789580504,0.015122607136412336,-0.02893597189784869,-0.022668541381844876,-0.05326669340757473,-0.032488678221141626,-0.0465373348936326,0.07415917038962405,-0.04947427569562643,-0.05177612629935108,-0.05372574949290543,-0.08730998627075437
-0.06899513963993496,-0.0770443832959189,-0.06333759158122243,-0.01120909868587551,-0.026471222716554027,-0.08200989104916123,-0.08597182369383431,-0.0852464663522815,-0.020100170732365502,-0.05374662123663568,-0.023412313877836516,0.027957278127866386,0.01973867972545286,-0.07682519139944552,0.039126647106616314,0.026857246857743045,0.023556538585342124,0.026429402743785857,-0.02337815013102118,0.044250980556770125,0.07260593741583388,0.047027153886432194,-0.028652048972254818,0.008286052036379221,0.013327843482573432,0.06603225699377147,-0.010874390720340243,0.046831207512199824,0.027173029317607567,0.04255676410003051,0.11140216847358142,0.07639823412825175,0.11049121289742736,0.13537452132591543,0.16366133014380146,-0.010957534795411616,0.17696601735573136,0.03763756167421789,0.171735539585826,-0.007057339646858063,-0.04679147552474927,-0.030825764922608245,0.0014521746068932861,0.0300070409151601,0.06530735011259048,-0.006600537589244837,0.12554233511585078,-0.09036326364307384,-0.08824351993744922,0.07535112899459129,-0.007402023247553735,0.0831229035383238,0.01981245543668428,-0.024675869201587486,0.09873197265104827,0.04699840286836954,-0.00908839097859171,-0.05277374474660504,0.17064377664719876,0.0907188364116489,-0.03781539288070476,-0.08626100576577395,-0.07015911898751213,-0.07341141610627866,0.015101844663338637,-0.026404477365692403,-0.025569668003014856,-0.057134612691611214,-0.025701808240675944,-0.047326137209187186,0.06969487418002429,-0.045926665116408916,-0.04861267550164683,-0.056064523728943993,-0.0835956520945911
-0.06810172821891838,-0.07637811894448523,-0.05482365187767811,-0.012117986801427838,-0.027699212400006057,-0.08243331729777448,-0.09033329705375498,-0.08432520478287064,-0.023177184421196123,-0.05156560695985628,-0.02170961669455429,0.028232144040721274,0.017279850169266267,-0.07616087743833475,0.0342295803926527,0.027111949505096766,0.028304466635122982,0.025286543376631332,-0.019345201746989726,0.04229892619285491,0.07461503368554012,0.04236085518353727,-0.028596363113882917,0.0072936511933134884,0.011836978959895328,0.06775038534654665,-0.010469183389899217,0.045917333259726356,0.0263188977490022,0.041956029427170805,0.11093372574609384,0.08987043473649703,0.1197554201304909,0.13548711836549898,0.17024024301051277,0.011836690588936771,0.18254500435317067,0.03702079759956184,0.17903035704197057,-0.003393346945772202,-0.0440026250116915,-0.024783732960044547,0.002662438865125183,0.022591681258938345,0.0676893438799312,0.0025549616581498347,0.09355774360984881,-0.0776217511606404,-0.09218068944488061,0.07440819311061075,-0.007356727034616595,0.09337594838970531,0.01785990870095777,-0.02708891778682021,0.09542499354003475,0.04093111601218846,-0.009847256420310757,-0.04227353779423121,0.1733788690854292,0.0942594251038592,-0.04108492391264093,-0.08331446606516713,-0.07484252052936219,-0.08868720457725993,0.014183676434733283,-0.024128565965093607,-0.026512370749327996,-0.061078138703686696,-0.02208491317594552,-0.04869223803155731,0.06469285033712646,-0.04470539915902155,-0.04506087645692053,-0.0586789314120128,-0.080469258018531
-0.06778951786436478,-0.07528605842571054,-0.047129656616013954,-0.014154403052853842,-0.029717600447546788,-0.0833064306718079,-0.09539623163581604,-0.08133454627446413,-0.026025722201682838,-0.04963882656826138,-0.02045526901109912,0.026231528465054638,0.01556696929033434,-0.07408571216948928,0.031329409826175686,0.029362861469835466,0.03565158679123237,0.023656357346215684,-0.015502192133996395,0.043019692999085035,0.07708539408776816,0.03859799329525859,-0.02522262318013979,0.008322708185690697,0.012006711962446848,0.06962243706622118,-0.009345798927119842,0.04293885235804007,0.025251408665302733,0.03929929697312162,0.11550095781380765,0.10059176412261794,0.128494512805167,0.13635892474113454,0.17225092966749544,0.026152171645850486,0.18622233849930758,0.0354197170787211,0.19648250015942237,-0.0007342520481578019,-0.03590232659902182,-0.022017212904600014,0.003679965761906545,0.015017140202652934,0.07000725782737083,0.018746333183532582,0.06435359784831862,-0.05899839658694278,-0.09130338288871842,0.07689472136322206,-0.00797197519620077,0.09890397049541583,0.015417324564227647,-0.029939816763325244,0.09214422633804564,0.03447434757534851,-0.010154846536919365,-0.03301996547714542,0.1727655502922737,0.10116442137563875,-0.04236058274414026,-0.07952894921257486,-0.08162762630255127,-0.10024385127045277,0.012556305206264051,-0.0228446008338401,-0.025500411997953054,-0.06375291932333677,-0.02063878794494517,-0.05051702025162402,0.05911889153249128,-0.04531050117710786,-0.04084295931781701,-0.062070750425963495,-0.07833447295072749
-0.0687012173555699,-0.07391252639556187,-0.04147772341929107,-0.0173424148958964,-0.03177200070646058,-0.08423933769180177,-0.10084616640335697,-0.07588303171270333,-0.02842576850818529,-0.04977644728856902,-0.021225296180063358,0.021954752345182932,0.014328833038059777,-0.07223730565100836,0.029948351289622283,0.03206011232598649,0.04394595040366933,0.021326592204216455,-0.011933399051099691,0.046141296384082264,0.07973951786818578,0.0373553627949097,-0.01902686881514082,0.012130544438479496,0.012755194368971878,0.07130753985493021,-0.007636924490953101,0.039605578820962384,0.023345829989847355,0.03624475230776403,0.12314785392034355,0.10724955546431214,0.13487510912031953,0.1367488063158131,0.16827336022514505,0.03202550629908962,0.18567464356524965,0.0320839776511162,0.22116436942470485,0.001263093563211637,-0.025601007735006065,-0.023482341026375586,0.0057112898944262636,0.008760207381128926,0.07240673214361504,0.03503679952805916,0.04401208348044505,-0.039399500559765765,-0.08562496599483654,0.07922890349454093,-0.008946399575317399,0.09838914480489602,0.012849467451540614,-0.03169758093526254,0.08883787298473556,0.02949673602761116,-0.010037617525933767,-0.026963020360086354,0.17020157684456794,0.1100876461754331,-0.04210936888881528,-0.0757772435014327,-0.08905900182607764,-0.10747125690804238,0.010375690106125712,-0.022881987842787277,-0.02306306793403401,-0.06464326069858278,-0.02006839370102051,-0.052222123543751026,0.05254316687280236,-0.046647908441839636,-0.035556338164765056,-0.06625372378872468,-0.07706350117525235
-0.07112432928837828,-0.07191907358950039,-0.03812787947816729,-0.021389836970743342,-0.03336144216128298,-0.08409123417868539,-0.10563083345981741,-0.06843803706494572,-0.03026351715489195,-0.052503467758307415,-0.02433387533372494,0.015007840793144211,0.013029734568251586,-0.07181705846774383,0.028977584357779168,0.033616863086954996,0.05115146501389112,0.01850949262922824,-0.008308633825447331,0.05015732356528191,0.08186096051821845,0.03924022896165902,-0.011775232778036604,0.019454973677065723,0.01306412215963293,0.07228915514625,-0.00595352013320527,0.03747429018725035,0.02090585043263482,0.03457037550315134,0.13139291881890913,0.11032686411932935,0.13846606788442595,0.1357842718736595,0.15831943074782195,0.03380972848150998,0.18033956576740884,0.026866648326966724,0.2469602594070377,0.003369587849693767,-0.015801604884382425,-0.026114764857916084,0.009182853502631372,0.004682391781961004,0.07567853413978964,0.048311731949907455,0.037159846322977974,-0.023361202335375808,-0.07665527425595786,0.07563188355187889,-0.00992100292848902,0.09315411349411484,0.01057626579256482,-0.030909998962907914,0.08480652667381794,0.027246904181256526,-0.009686454169655634,-0.025394860305478162,0.16658022839366426,0.11739332522657553,-0.04118483884059698,-0.07287780374172106,-0.09549704845295265,-0.11056402433060702,0.007757882263915716,-0.024079232101793635,-0.01975165346753327,-0.06411844667099201,-0.01920215824671942,-0.05287670437242667,0.04468117447772457,-0.04789336108242015,-0.029159379949540487,-0.07084827830201795,-0.07617764924183107
-0.07510355112096598,-0.06931973606728598,-0.03713144766673154,-0.02517114296151518,-0.03431972298758179,-0.08258089989759065,-0.10906748250928255,-0.060701885051876014,-0.031111791085592422,-0.05676343843898568,-0.02875650947824354,0.005854345632915703,0.011858022832270151,-0.07423153450057313,0.02823020734924417,0.03319240389689593,0.05604834444246465,0.01582913263505331,-0.0033179947741670546,0.053170324937407476,0.08288176762782029,0.04400994769390665,-0.00476930850423829,0.030107574724888564,0.01297279104564908,0.0725079227776152,-0.005264415550070178,0.03774266627343448,0.01960621240890681,0.03499150389873418,0.1392547017687933,0.11043022127632918,0.14165759437597003,0.1342868290652327,0.14471988427325633,0.035685621148486946,0.17200295027362167,0.020607810492058065,0.269242917403809,0.005476110134403744,-0.008916900707467534,-0.026527683129167756,0.013078361590673326,0.003284726290482931,0.08020579518527282,0.05931239371722319,0.044762567348019755,-0.0138275463485375,-0.0665534470044033,0.065020502463083,-0.010625188460821444,0.08573934360120977,0.008910254601670137,-0.026953157059691257,0.07987058606206077,0.026793337371479375,-0.009329972831231964,-0.02990369885998123,0.1625031562234298,0.11980071589332619,-0.04016491260754945,-0.07203186224810784,-0.0998999193284013,-0.11031132138035515,0.0048860310979230714,-0.02601435278532216,-0.016173316751691258,-0.06327359318580802,-0.017757102254288643,-0.05208545259538408,0.03620383376833758,-0.04906407285689418,-0.022223913056584388,-0.07511294439393346,-0.07551865438854294
-0.08006501980713243,-0.06660640102810558,-0.037852277113875565,-0.02779074439050569,-0.03417545794537313,-0.08015277144039523,-0.11126180249007914,-0.05425528637920174,-0.031011170897969204,-0.06165082795553027,-0.03374781625149151,-0.003635698985423902,0.011111435113073567,-0.07968991029182282,0.028157841201287087,0.030581464163680017,0.05913924165556317,0.01381734234789439,0.004075212716441401,0.054571172476114316,0.08248853912696685,0.050619538739046566,0.0012607270974237528,0.04239083318166048,0.013207343459222587,0.07175707469903536,-0.005662737125622486,0.04053027827544797,0.020918440452414977,0.03732797031843671,0.14606149564017878,0.1066322268107397,0.14514820573378628,0.13327277029346185,0.13092809646008174,0.040678499080019304,0.16285172495147215,0.014956283654157632,0.28524433360690626,0.007335331776367804,-0.00617170198313044,-0.022868490140874442,0.015969945670946006,0.004150275101897527,0.0855024928283381,0.06817247718091857,0.06176766426763358,-0.011641711874086969,-0.05599707916104091,0.05165351994317513,-0.010944940585389862,0.07724203792155321,0.008025687825084726,-0.020354491248436357,0.0742389234162677,0.02679976521605698,-0.009068896968293522,-0.03907723883552461,0.15841547804447587,0.11726334900953028,-0.038653852263585975,-0.07489257704496524,-0.10183343687345929,-0.10797717890460573,0.0019778353587848185,-0.028222010174460355,-0.013184991636893795,-0.06311582163522825,-0.01629431615954835,-0.05015073084394428,0.0283330181335838,-0.05049252442894214,-0.015804345561533817,-0.07808052367054064,-0.0750441758895577
-0.08429688677750313,-0.06367462781425737,-0.03973079333640968,-0.02877182057109201,-0.032772920690775476,-0.07688076583551554,-0.11179812268360162,-0.04936736182945595,-0.03052670371643587,-0.06684266029957847,-0.03846976176124836,-0.011806944722267843,0.010630076347708586,-0.08604260810589417,0.02830850606214863,0.026360230821770525,0.061578184673910186,0.012782077434470851,0.013482351147335425,0.05496191936638162,0.08055743549845662,0.05716718869926829,0.005525512940465771,0.05280575926348419,0.013974929844247641,0.06906614363670016,-0.006501590554782721,0.044716666432310426,0.02502279800436924,0.0408348304436692,0.15167796989251414,0.0986600351842637,0.14757824442562695,0.13305286640108704,0.11916505247241294,0.050846286095105664,0.15547238555924336,0.011122850856675914,0.2933356684578665,0.00951351644058862,-0.007137877628479838,-0.016140289391021523,0.017102052717801963,0.005967389000943402,0.09137496892119923,0.07687811827056013,0.08286516491845297,-0.01389417178441349,-0.044686229989862436,0.03934752538285591,-0.010851136781019288,0.06762533517907038,0.007850829028713285,-0.01269927359852041,0.06796752159162134,0.02748310325852088,-0.008888911578336406,-0.048088737574385976,0.15395440533256732,0.11251292939441182,-0.03600991082052235,-0.08222614637316963,-0.1014614740858326,-0.10503930652926258,-0.00052238082632583,-0.030085576936881298,-0.01139710033534136,-0.06402088336644526,-0.015283397504322116,-0.047789265085616955,0.02215520543384919,-0.05228094487643564,-0.010768721350837618,-0.07922765193148734,-0.07453873037919334
-0.08658110142249671,-0.06040036550914743,-0.04294481018930592,-0.027145810730387174,-0.030769877075052632,-0.07296486805317483,-0.11028492460773309,-0.04614501627002682,-0.029803682051357056,-0.07191782857376468,-0.04159539189383277,-0.017317052326325355,0.010297580814097082,-0.09152724604591128,0.02821598659041155,0.022031834243809945,0.06378582452102255,0.012990999870678477,0.023254276535551344,0.054719503588252616,0.07737070559755566,0.06178636305164842,0.00772605843309937,0.05770405208045637,0.015288882548574856,0.06420613340606285,-0.00767965923487246,0.049018297175834835,0.030743773568597033,0.04439772130387809,0.15628159455237456,0.087118872358661,0.14976857086341377,0.13367296960272934,0.11074429176300471,0.06482834226041922,0.15303096057879395,0.009698118763303731,0.29487044216871783,0.012306828210187692,-0.011562154450805107,-0.010448738840536764,0.01660557739281021,0.007982028193075863,0.0974890138210931,0.08733967789741304,0.10643214297697845,-0.015140358544401822,-0.03298388248226103,0.029192326558330373,-0.010434274631849705,0.05732435605187797,0.008145399513715956,-0.005761091815777664,0.062064525829185535,0.027821488558413376,-0.008594561157839048,-0.05406389367420547,0.14969090739643787,0.10999507434238986,-0.0322162065836159,-0.09301242430049864,-0.09980243190075253,-0.10268604056688041,-0.0019797251772221136,-0.030885196120768788,-0.010892440860562291,-0.06587665790621322,-0.014934043154521709,-0.04581478396181077,0.01835600652801833,-0.05427967846678933,-0.007379642225886107,-0.07873617475481737,-0.07409528758823045
-0.08687726613471344,-0.05739116492995816,-0.04691318698725826,-0.022758910035106883,-0.02846022197694334,-0.06896341181395785,-0.10734148492094886,-0.04518725324480016,-0.028957022068960503,-0.07703261061452304,-0.04243005848462508,-0.01875997004855473,0.009718872112758667,-0.09620358509743501,0.027844549321722895,0.01941920953067444,0.06525616139175827,0.014353456432605938,0.031261734434236854,0.053704560186580874,0.07331701165871352,0.06374813373347177,0.008370959457304261,0.05614073928389418,0.017631378897693617,0.05828141307928891,-0.009368585952496788,0.05272850109774474,0.03576850394977493,0.04725653363137772,0.15829870152833336,0.07192628476920093,0.15344874933014674,0.13387420080203694,0.10619852800903495,0.07881061480288831,0.15668538718523273,0.011184931485989313,0.2925753461674767,0.015389483464016473,-0.01894970895214998,-0.008675888811368382,0.015523935543822254,0.010304329622543629,0.10250657885466907,0.09551179161388723,0.13079094859802165,-0.011871412562447448,-0.02186919431458989,0.020923903094508756,-0.00997249792739413,0.04711538774974011,0.008655768970245836,-0.0005086131680934747,0.057968285277737785,0.024351940715966025,-0.007854117048605058,-0.05733121589340326,0.14782799645493527,0.11412568184060312,-0.027615039993361984,-0.104882094355062,-0.09835447139515037,-0.10151829146283758,-0.0021210766803511083,-0.03025611404175832,-0.011605243566516266,-0.06808074144213377,-0.01562986658153709,-0.044635567155427436,0.016672146148727363,-0.05606633336472039,-0.005241336252624518,-0.07710707194561545,-0.07387328204713503
-0.08469869910298045,-0.05470447494229086,-0.050207373309055156,-0.01757340604463714,-0.025780112306441783,-0.064900043131004,-0.10309345142275626,-0.04656731448532425,-0.028541674170718845,-0.08278314025276248,-0.04086912923156058,-0.01636763496995486,0.0077890680267186235,-0.09980987120075821,0.02616462289502719,0.020168703927498366,0.06452316894795607,0.016133933954434465,0.036165434442684274,0.05183166710037912,0.06865602882019683,0.06366689157112926,0.008087276654455855,0.05020846688157676,0.02114125331043948,0.0521999975802826,-0.01136165726823124,0.05525626693812968,0.03800002110649303,0.04920221184487206,0.1560798952489526,0.054559269963680435,0.1578144687604156,0.13156679131763183,0.10464209670336344,0.09072687496361342,0.16451838342762415,0.01545513157320505,0.28760277654215094,0.01886666835801698,-0.026708056111339418,-0.009813013560350248,0.015291904952537738,0.012977834943616928,0.10552393676657612,0.09620213040589032,0.15358687160420215,-0.004220732974240693,-0.012993838464985419,0.01448142291383181,-0.009806293994063381,0.03790846289948596,0.00908588109114064,0.0030231708441160743,0.05552707937539075,0.015287316405902196,-0.00669728204172601,-0.05782486996950065,0.14911255591891415,0.12591284469654118,-0.02287082804657839,-0.11494758216520662,-0.09797435381714542,-0.1014124674200238,-0.0012988997874262553,-0.02845663930423381,-0.013353630504249259,-0.06970632490374204,-0.017655556770164477,-0.04450810077656972,0.015727990965955674,-0.057166472112089806,-0.0032708844529998893,-0.07499134585027828,-0.07333841503109953
-0.07954230929711537,-0.051632756444429245,-0.05221584547768306,-0.013826235657851488,-0.023560425590445494,-0.06070224423047364,-0.09683474930889704,-0.04977733613480706,-0.028509759262466794,-0.08848646378010477,-0.03692348593447381,-0.012326557203207827,0.003947135434860874,-0.10163731235950679,0.022112564615824892,0.025557373854009136,0.06026849024600345,0.01732270584818102,0.03824914359986331,0.04918005666141623,0.06398824979539353,0.0629752589622311,0.007364476535488107,0.04288070959008927,0.025022377624071224,0.046534857155240084,-0.013576636128388775,0.056027367675804074,0.03720059442762602,0.04999133944589418,0.15091237117633305,0.03931766707324691,0.16136403308448077,0.12701736269569297,0.1057570743972831,0.09997115068104234,0.1738131182004259,0.02144563345933581,0.28197332978514067,0.022953695082584713,-0.03194767242059904,-0.01214167676166622,0.016474312557957504,0.016082649503083968,0.10662039802099899,0.08929277774320288,0.17442994260588962,0.004871924396411653,-0.008006767973291307,0.011445733504687472,-0.01021205430753197,0.030964441115488184,0.009181570059770383,0.005294768973787223,0.05375420752730148,0.002160224239414976,-0.005676375695249064,-0.0546642532449739,0.1518885107215283,0.14249725521136336,-0.018953180492351174,-0.12090338703296694,-0.09814118248845738,-0.10171748936100106,-0.00014230086997912839,-0.02619038634723747,-0.01575538275252758,-0.07022667110246689,-0.020873625836614812,-0.04609733156885221,0.014112924610605704,-0.05758000734672922,-0.000579598956140237,-0.07312339482202385,-0.07182290275359995
-0.0726255212604101,-0.04820760278587746,-0.05285076579292028,-0.01264382829754665,-0.02272660540535959,-0.057104104677872414,-0.08874698939642539,-0.05428597743811736,-0.028199587414568322,-0.09291913000778487,-0.031663485881511716,-0.008534725849189906,-0.0010932808781913689,-0.10173021134598997,0.016283587089372803,0.03568904589268984,0.05356582113667119,0.017115630383751135,0.03856308046918455,0.04599744690196894,0.060017574785471206,0.06288581040710484,0.006657065116922434,0.03657455255699216,0.028116216260078764,0.0421828632572776,-0.01585483353294692,0.05526231257250658,0.03490858485143655,0.049734814430443475,0.1446184274352963,0.03004111223944561,0.16257739872516208,0.12249580887555156,0.11092850364578721,0.10566040331900728,0.18217315816771962,0.027952787441952676,0.27926960237482323,0.02716129072972351,-0.033537202367900476,-0.01522505008862296,0.018487515126523024,0.01981502211087166,0.10561007727714167,0.0760677296317791,0.1929128260297055,0.010779549598440297,-0.007106927551951414,0.013334679503022806,-0.011391198617203752,0.026969263519968645,0.008955978161711786,0.006883225158958894,0.051847908358948314,-0.013078120601991317,-0.005258720460605576,-0.04735614776951569,0.15431961812630823,0.16026216493109058,-0.016527935321829418,-0.12169998802719316,-0.09722181670385918,-0.10202289386413477,0.0008922143750201839,-0.024268895790370948,-0.018501486307854365,-0.06974737475239023,-0.024865110450581762,-0.04972756405358439,0.011201558923430888,-0.057675974066560054,0.002406110013320084,-0.07187811572575387,-0.06937071917297058
-0.0658020899983218,-0.04499184682518731,-0.05198149837944768,-0.014747634494085698,-0.02314368957137461,-0.05467905608540796,-0.07974530585675521,-0.0591548295625583,-0.027562327361136618,-0.09638095916140971,-0.027010388018784165,-0.006134784058507453,-0.0063404285173663255,-0.09987325864592617,0.009363862749878882,0.048906599096339654,0.04735992710240222,0.01511149122092853,0.03769215335533882,0.04273479884032594,0.05666291853750682,0.06333271186715783,0.006397506247280527,0.03291917077047268,0.029231243000647056,0.03924943845574136,-0.017212581478472266,0.05398023484635428,0.03331748947764013,0.049323889529079956,0.1375194099596988,0.028874398020117598,0.1587653309794932,0.11897737579938628,0.12024959925639978,0.10832992818839626,0.18738855604732696,0.03386729383983467,0.2804301000952093,0.030958769192352742,-0.030755462501637854,-0.018308347170177597,0.02073070074818051,0.023705999318955784,0.10254918481412434,0.05784704530271645,0.20771785928078457,0.010869421726534823,-0.00981372023495658,0.017771739806539455,-0.013361909332419902,0.02528905455208119,0.008596145470621014,0.007829361047317573,0.04828146008457351,-0.027698128536609246,-0.005469775125541476,-0.03539178371763191,0.1547213663516992,0.17605231792670095,-0.01599642662919981,-0.11748259060479796,-0.09357297177158812,-0.10244286063385055,0.001778199968802463,-0.023133161968758587,-0.021187041851932653,-0.06851178498823085,-0.028874332252071727,-0.05463166434375011,0.006903794409083119,-0.05763694795953464,0.004543745848179737,-0.07138852444563348,-0.06643435617040652
-0.06021178725582006,-0.04237143123468995,-0.05027144914638426,-0.020000100002895677,-0.02446770502097234,-0.05322863641322628,-0.0710213156651446,-0.06324315252965079,-0.02700515566803205,-0.09988200094836512,-0.023814510337660605,-0.0063153800556226825,-0.010914812701529525,-0.09572233573816835,0.0010948055197366469,0.06268362844013486,0.04374489087989164,0.011555929408009813,0.03592327009329077,0.039595920918099936,0.053625579133837475,0.06359651862723426,0.007481565844653537,0.03252769718326076,0.0275705975881243,0.03675241363717152,-0.01657886361088101,0.05314823761054899,0.03432184139094552,0.049155459325153195,0.13130528922100593,0.037316201061578624,0.1496031433361633,0.11644356107928566,0.1310076878581874,0.10899881630129582,0.18881859448945137,0.038076868532638974,0.28440359436595575,0.03403717861455513,-0.022875540559404328,-0.020322373524560122,0.0230599872004712,0.026792903716158833,0.09874863489454166,0.03894670470469719,0.219185723578612,0.0067891456103617576,-0.016204740332227574,0.019739160809859824,-0.0158766486029199,0.024924409739596032,0.008197868469932368,0.007403747918437564,0.04227666865832358,-0.03700966348290258,-0.0060895583438208,-0.020874082480881517,0.15124192723840124,0.18711514097782966,-0.0175662605379876,-0.10934226115831212,-0.08696501299733478,-0.10302412200591765,0.0028045200645134827,-0.02254435636637131,-0.023016424934879598,-0.06682035999136202,-0.03193938947782293,-0.0599319119023391,0.0015045924636754027,-0.05739864080648474,0.005210521431994186,-0.07209387430327552,-0.06359371704428818
-0.05656920870191795,-0.04120669714828923,-0.04861425877474079,-0.02674237191422868,-0.026541133726030425,-0.05267642700096212,-0.06501045088113115,-0.06582824555315314,-0.026877183990696246,-0.10398180370478005,-0.022049413352519753,-0.009280448658187251,-0.014044946162994357,-0.09049047158430218,-0.00822721496428655,0.07473224338065931,0.04325407836114592,0.007336512628879632,0.03366010505415651,0.03661035753505282,0.05151281749880465,0.06386276105334943,0.011338229919282461,0.0354198413282899,0.023744233300865836,0.03426792739211204,-0.013390142629545965,0.053404710586745674,0.038413247107039195,0.04854164909165182,0.12854273754935985,0.05436702928896853,0.13794655570075087,0.11537089498334263,0.1403312893925026,0.10601136700248215,0.18719183266530737,0.03987598082835664,0.29195331880683106,0.035983248156515435,-0.011016827952584851,-0.020812481692635276,0.025296005473444128,0.028371028313694258,0.09576741893913998,0.022545466488053556,0.22772999251702175,0.0012391079991003195,-0.02583923385460668,0.017174463792893224,-0.018623071208219377,0.025449705095551944,0.007725448342251945,0.005149694133263938,0.03632890443630721,-0.03899253385918511,-0.0067669658526327,-0.010017670631568998,0.14333674632343374,0.19398098306939449,-0.020749428830770467,-0.09860096482754459,-0.07883321200737277,-0.10330042152485941,0.004019264758518548,-0.021952870661936075,-0.02328679315778781,-0.06529489679646636,-0.03349349872168911,-0.06549068670362801,-0.004499132238382497,-0.056790708652491334,0.004288210427371708,-0.07422708934906136,-0.061676666159055565
-0.05446551398150003,-0.04221549452365719,-0.046989508063740276,-0.03341854902163423,-0.028760067811587714,-0.05298961141848789,-0.06432710258109353,-0.06597839665067123,-0.027896446724822888,-0.10885582621222845,-0.022283827461734296,-0.014022473373260874,-0.015959515719794704,-0.08597645960674266,-0.01839360292197248,0.083160449115528,0.045149019618601405,0.0033416524838930095,0.03077321727395288,0.03442612259684841,0.051082792794993837,0.06481756248858828,0.018761789630156622,0.041846346317019334,0.019320358350243816,0.031851374939116495,-0.006971898668351906,0.05491797901446738,0.04414159908585358,0.046959910375517167,0.12923634452946253,0.07574989771806206,0.12553656498531507,0.1155019212563756,0.14633024044480514,0.0978181115218908,0.18238375783366723,0.03879024219052568,0.30342605734811356,0.037062260902741895,0.0018783332037775047,-0.018898746943713407,0.027210889287948348,0.028108638527561403,0.09473115807544541,0.00866611288031649,0.23210999037077773,-0.0038477542143418586,-0.03677167679067539,0.012398574960680975,-0.021382359050936023,0.027038489211003602,0.0070184613005069285,0.0016464733889272054,0.03456448716091748,-0.03646550383232361,-0.007122321438626955,-0.007315727793128446,0.13220411801197762,0.20201008210714977,-0.02456290783983145,-0.08639787135942771,-0.07108927624563055,-0.10261551034866284,0.005057115387971933,-0.020924731040765754,-0.02185641878386224,-0.0645880315663489,-0.03353521078744143,-0.07125963399253835,-0.010899097334088448,-0.05552525855447479,0.0020599198149742204,-0.07720061292036345,-0.061217190593118115
-0.052178464273983774,-0.04456680643897165,-0.045624326705224594,-0.0395828167233748,-0.030794498343996807,-0.05374313508946492,-0.06957199517035666,-0.06272778693692688,-0.030846331861936777,-0.11238518728618133,-0.024874022963050885,-0.01978007969319845,-0.017726123186968645,-0.08299317354744504,-0.030401083655210076,0.08682632354929876,0.04711960135320792,8.043743444147156e-05,0.02672940860569184,0.03404617594072323,0.05221131365374898,0.06635699672420048,0.029107757584502014,0.051372961703744946,0.015319052594115257,0.02895464598033637,0.002501104929225395,0.0568820568542292,0.04922586768886428,0.04460742576379151,0.13235489253223398,0.09734531168575977,0.11362829692734544,0.11575721167733954,0.14700008667753184,0.08685997796567213,0.17488166498402635,0.0343424100778284,0.31589345760863285,0.03821813665502094,0.013131445834404731,-0.013256983130454758,0.028743671480181865,0.026437771359013762,0.09655128233201604,0.0009951231974048014,0.2328835896542476,-0.005684964122300629,-0.046953123341808733,0.00860269694874971,-0.02389809548589497,0.030302249028763606,0.005864584709433296,-0.0018836952570714383,0.03937792052410699,-0.032394384596838965,-0.007017180077438623,-0.01222923496060696,0.11968039337156033,0.21708465106725128,-0.027963841398791323,-0.07401745686809999,-0.0653274436747621,-0.10092094148647524,0.005759677790044382,-0.019081297826337273,-0.018914607299511166,-0.06514093196071949,-0.032335713969982166,-0.07694668959635176,-0.0175530968189353,-0.053447235733518644,-0.0005025451839051898,-0.08021717984379217,-0.06201302182647642
-0.048721330261241716,-0.046947811269337086,-0.0457265962653909,-0.04482001863941437,-0.033277579101628235,-0.054798445215199054,-0.0801330744854804,-0.05672203923229058,-0.03586160761380783,-0.10837942791921591,-0.02931774293112463,-0.025800494370543547,-0.01978819201218049,-0.08239390173877881,-0.043938006342529645,0.08583988611543769,0.04672621587432346,-0.0021581483553748115,0.021971010485776543,0.036063144049669704,0.054552312092470356,0.0679356875130146,0.040872481267213656,0.06172627406899167,0.012392111509938575,0.025600234388115317,0.012926683592617949,0.05843689613295011,0.05203868896787134,0.04203338394509448,0.13748297180589686,0.11641022472960227,0.10510919102076488,0.11618424731990096,0.1412545151427832,0.07654582903227647,0.16820411324157647,0.02692873371338078,0.3260635871360896,0.03967996416868169,0.021199404325865645,-0.004252678815894528,0.030046619598544377,0.024823040520941086,0.10082740439641247,0.0049387228138232375,0.23237322404111183,-0.002096159092877914,-0.05543824270480374,0.007562747449282092,-0.02587469493710312,0.03515215539777278,0.004282287635224757,-0.003947844961548541,0.05028661956118913,-0.027490987511407328,-0.006607224887875102,-0.022184767480511403,0.10793756886101791,0.24237118927045442,-0.029965049101274954,-0.0627091518316128,-0.06255265604912749,-0.09899142129625704,0.0064443726640244225,-0.01631446179828766,-0.014994374368128283,-0.06721730954975191,-0.03051445729436586,-0.0823008179119247,-0.0238000894752442,-0.050812548276757796,-0.0026232117534279453,-0.0827993460784599,-0.06361724927599827
-0.04436450005634496,-0.0489121526470592,-0.047888625313199665,-0.04890759278952976,-0.0366661545817808,-0.05617811714657431,-0.09535454032644981,-0.04997133768854789,-0.04320341643072756,-0.0883602315602576,-0.035435613131069854,-0.03078002596199672,-0.02198462685806779,-0.08508536642617354,-0.056282283956425164,0.08088663040065247,0.04335899393790754,-0.0033582133313027063,0.017861463712615988,0.040750808364336755,0.05819992546605224,0.06926650170207493,0.05235112778896478,0.07040565472928872,0.011410586925190591,0.02291783457228269,0.02242760064519933,0.060175105710596366,0.051872360132904194,0.04035281465608598,0.14322278481894324,0.13054098226151523,0.10153048157177913,0.11776996309285825,0.13019370740933411,0.06794601383840071,0.16582442894002836,0.018344540931086173,0.3320191350473489,0.041077741903597254,0.02566655960736408,0.006187964873618612,0.03179941058423752,0.02465041253442496,0.10570553200026633,0.01844665326355266,0.22981388877145492,0.006880465286537463,-0.061482667780862366,0.009357888365810307,-0.027156118080927105,0.039884916415735217,0.0025465408335470785,-0.0031736810826602513,0.06437886799615244,-0.02089068514581116,-0.006165253707700824,-0.03371739350323183,0.0989069859074172,0.27977107272073487,-0.030344480799278567,-0.05342273176530565,-0.06266744987610576,-0.09765049447618507,0.007410996587579377,-0.013249979961662217,-0.011273294100226261,-0.07032437106683745,-0.029057597189316525,-0.08678998116504699,-0.02889265454304385,-0.048119384852969016,-0.00450488095496665,-0.08459555817828596,-0.06539579104493476
-0.0391157677221385,-0.04984346309692461,-0.05187894347169318,-0.052533986958994805,-0.04080927639431464,-0.05715409766384537,-0.11305270304079011,-0.04411360242634943,-0.053971031053511725,-0.04360827976478822,-0.043044910321819285,-0.03434216375234414,-0.024156930269299548,-0.08995312419339735,-0.06489397059206144,0.07283559749047841,0.037775230317845354,-0.003830220378146121,0.01549203682282041,0.04783027247764937,0.06310216740257746,0.07008049447252085,0.06181831060813581,0.07635532165785064,0.01261730803124761,0.02127244566006037,0.03082047448605363,0.06298844951563931,0.04879321732079889,0.04107400287412166,0.14863045091622962,0.13941964531742224,0.1019289830301251,0.12100328692104145,0.11664554334459276,0.06170497670624153,0.16772482137802947,0.011008093305403921,0.3319972018897489,0.042648026483884216,0.027581423389956727,0.016800406917731436,0.03488340380719779,0.026338362041368746,0.11015000783296258,0.035464204967196045,0.2230032294228279,0.02117975883588652,-0.06397945464565613,0.01284865490320597,-0.027709364654748575,0.04259735201364567,0.0008490917756463212,0.0008890191083191779,0.07762359287950948,-0.011004516476996407,-0.00599699742670573,-0.043406061649003624,0.09252142609217207,0.32954698843825714,-0.030276910310607696,-0.046988932961869706,-0.06465525288472512,-0.09700605579054394,0.008690153735031902,-0.010940794522590114,-0.008964777747467123,-0.07309762067908873,-0.028636474610549273,-0.08965979361715157,-0.03267703873756578,-0.04595276035011747,-0.006402665360491222,-0.08544877777474913,-0.06629923487344735
-0.03317767106482877,-0.048754206844113274,-0.05739822463252525,-0.055833785317243714,-0.04563322282428889,-0.05688725838936552,-0.1287583122195481,-0.04035862466551571,-0.06906114479958624,0.03400342788144867,-0.050850131640888335,-0.03745125227189394,-0.02538178528117664,-0.09391042439277114,-0.06875141912142033,0.06358917049075596,0.031332036636212424,-0.003850186681854939,0.015576651520760487,0.05577106573621682,0.06855604469214593,0.07031910305217937,0.06802089618614993,0.07926944141783387,0.01532202881798006,0.020005875589872213,0.03781627232632678,0.06613637624803792,0.04373792182592984,0.04492365908517737,0.15505733185175852,0.14489651454593477,0.10532179051878343,0.12557674657006612,0.10535877284503559,0.059344278689279606,0.17157554722070423,0.007024330123510336,0.3256904808995068,0.0448737560177509,0.02811601239034711,0.026728933487698447,0.03935942610058696,0.02976480902107631,0.11428276115130476,0.05392063106235401,0.2127857082815363,0.04007349395231119,-0.06183794933510589,0.017260806989731425,-0.027621017578183138,0.04227035065207346,-0.0007984644216857129,0.0078055045305177595,0.08652519683604265,0.0009180071304361048,-0.0063072210867138045,-0.050117122417383614,0.0867922059705648,0.3883823090892943,-0.03141121800360236,-0.043903967703667834,-0.06745100832944274,-0.09659339544332607,0.010169277840570423,-0.010129444075101524,-0.008524326000564408,-0.07460965891757859,-0.029284456286739813,-0.09073690689275446,-0.03551543188997497,-0.04494151819528877,-0.00816978968111376,-0.08544420698454797,-0.06561613007386627
-0.027758664360932855,-0.045529449703700015,-0.06290583495587408,-0.0578595481307405,-0.05089519011102983,-0.05532439768391065,-0.13621818216612194,-0.03983518448302881,-0.0885515580264557,0.1488782237875055,-0.057316295545754486,-0.040788912239963115,-0.02444227965689337,-0.09279801829608272,-0.06825187256537434,0.05580574989285347,0.026027777281318998,-0.003456272234787394,0.01867064016321751,0.06248128512990414,0.07361462963109366,0.07068822857654222,0.07051187889007704,0.07926274130318,0.018652108958716163,0.018860403306096285,0.042374989592118606,0.06781502767338832,0.03803794710065256,0.05137508678898728,0.16334969147600287,0.14781992324169824,0.11062896425980706,0.12991134803163829,0.101587107215931,0.06218562161183383,0.17434727321045018,0.00743883000645823,0.314856498765374,0.04763234811291506,0.027234782404178315,0.0348715881875995,0.04474680984160284,0.03429927602488686,0.11792355306586066,0.07407916711901341,0.20070064022756617,0.0597076826433145,-0.05404713911187886,0.021705793700821818,-0.02719902823056669,0.038046250860434006,-0.002386951443839852,0.01693468378832097,0.08920905317005556,0.010582388327031067,-0.007059473040340297,-0.05260551085061438,0.08005094485644904,0.45004448782444983,-0.03416695819048027,-0.044267343696628936,-0.07036005128582465,-0.09611360296229388,0.011499912537862977,-0.010906367611612788,-0.009808170144053496,-0.07516924849662973,-0.030873985112601393,-0.09033171159698189,-0.03812800634226321,-0.04527889478292185,-0.009827026423149421,-0.08444460468788312,-0.06330323733093232
-0.02330658678056652,-0.04038069312313153,-0.06588025998628971,-0.05824175153951365,-0.056150430774694005,-0.052742509380049166,-0.12693021067638355,-0.04263591066934774,-0.11197875065834398,0.297335197108614,-0.06120600001113696,-0.04457558995042851,-0.021677046656734325,-0.08026791933906996,-0.06537598261169174,0.051473346118218966,0.023737392608081942,-0.002702131018494369,0.025023990352994296,0.06670598270064332,0.07776937421024932,0.07184506315300998,0.06951665413148977,0.07722084220018233,0.02167998551551653,0.017969434870729994,0.043959751660346824,0.0666018513862705,0.03302519234752743,0.0590875895774009,0.1729215534866897,0.1481606450591909,0.11643318220814869,0.1318711895390795,0.10630242311740234,0.07115364404199065,0.173377558848696,0.011443911272529028,0.30136943651823234,0.050546793449274485,0.025440360906126003,0.04108451685881187,0.050878757305836686,0.03860990713376883,0.12120311751683244,0.09662266602265435,0.1880705418676969,0.07628034587759447,-0.04077137475105369,0.023496976491223398,-0.026788581605272394,0.029459028628670114,-0.003946045587778585,0.027120386711105615,0.08576124810581232,0.016696226775249512,-0.008213369783232838,-0.047502317949547485,0.0711427213077277,0.5064359354033638,-0.03740198671119499,-0.04804281824282261,-0.07313930756467753,-0.09565476823041408,0.012172009849257703,-0.012653322447829796,-0.012345311726563002,-0.07580006903506581,-0.03319255772546284,-0.08859634981206996,-0.041346585892109045,-0.04650070904144121,-0.011330309588613585,-0.08218795505829257,-0.059268609608306544
-0.019148948367536583,-0.0333153466387284,-0.06539370109578484,-0.05722034902435415,-0.06142966356215751,-0.04994394575949883,-0.09128349891723962,-0.047739715339636,-0.13759524260003267,0.4657937314492312,-0.06122262422937483,-0.049200696970322116,-0.01859416955762852,-0.048152571880741235,-0.062338166786002444,0.051419147753357985,0.025611233180811155,-0.0017469351668187305,0.03460155732874226,0.06800251749169339,0.08133462272269454,0.07322676938932038,0.06607454899707776,0.07408113509195002,0.02351983125431656,0.017535900108433977,0.04246481113422862,0.06227725303643572,0.030075319218802465,0.06640322742001903,0.18461333962534543,0.14677230836239996,0.12394253945435685,0.13157522428751767,0.11501284971234571,0.08613069803517626,0.16861902962657904,0.01678168417832726,0.28804285121679674,0.05319519313458232,0.024548040486274236,0.045611280354188266,0.057239272721804735,0.041563679277222876,0.12497312558024753,0.12378555636804689,0.178793088915025,0.08948295764134839,-0.024674662681695658,0.02069106006782684,-0.02651519918264933,0.01755970504548643,-0.005599385254601186,0.036382459603278794,0.07819165414775386,0.021540225314521155,-0.00990486390998796,-0.03448346977279315,0.05897797879570599,0.5493034678682591,-0.039453515832148234,-0.05474653281354125,-0.07603406102106688,-0.09534632754269895,0.012034912171978385,-0.014430525581056397,-0.015366524674727822,-0.07771505213367436,-0.03582081408758439,-0.08558967866399839,-0.04542710613915024,-0.048277278490788306,-0.012547380396728702,-0.07894749842003956,-0.0535180858389194
-0.015389143759176105,-0.025247977446783143,-0.06226358203300224,-0.055022853415777825,-0.06675640326002333,-0.04861778003893581,-0.02187156889168096,-0.05395253308483827,-0.16177032378800374,0.631599086001812,-0.05743995589293352,-0.05432634062511743,-0.01643979036993022,0.010836102832669975,-0.059805979521998134,0.0552947054870081,0.03216272064118586,-0.0007719229029788943,0.046543982811989015,0.06657857247558863,0.08503151810858944,0.0736165735338663,0.06184240018142739,0.0704045367833892,0.023941101453178293,0.01797618046020044,0.03800578394132381,0.056444595817751964,0.029806122678776692,0.07229158899704147,0.19912153183584813,0.14402659124385475,0.13666554713764323,0.13139609936077756,0.12278980669828143,0.10522439958713714,0.16276308301865638,0.02147629519244504,0.2797581052340523,0.05505125352855744,0.025506294260615237,0.04859140413262897,0.06254834566277534,0.04273666158978695,0.12944726385532868,0.15586509161986128,0.17577438487161223,0.0997046314088762,-0.009390267774448291,0.014920708775640779,-0.02633395699825658,0.004670848690673635,-0.0073513814150434065,0.04296104634635867,0.06972897821196244,0.025835945760373402,-0.012139682166043525,-0.018257034646584402,0.04519550114761983,0.5737715251441529,-0.039095892388257225,-0.06316866380795227,-0.07952079317095344,-0.0952547017991699,0.011402446217438134,-0.015684586521053756,-0.01812944740958705,-0.08170804230998308,-0.03859194683511377,-0.08135840611016307,-0.049921951286995,-0.050798810146019335,-0.01417646326399219,-0.07542552301401162,-0.046839574688765484
-0.012504384240496935,-0.01763197980187517,-0.05753333753714146,-0.05288516123412702,-0.0713414304929692,-0.04982837734621934,0.08457155598072089,-0.05982135536405275,-0.17942241416652674,0.767709389436312,-0.051897103648242876,-0.05896070035069623,-0.01610625153027126,0.10141264342878534,-0.05786163311245944,0.06141172466268763,0.042657204510068825,-9.47357606475574e-05,0.05874540337951284,0.06395791440022047,0.08892949607796896,0.07230871301895259,0.058398694766421344,0.06666993373845664,0.023093509433251835,0.01898666997945353,0.0318146287707205,0.051695461464436265,0.031218434813940266,0.0767715244957815,0.21319914250382055,0.1396504258695389,0.15605109189255917,0.13299350678752753,0.1273431486598705,0.12618663937199015,0.15873998027339287,0.024403690714604465,0.2800624793215659,0.056243491796460376,0.027875379821135304,0.052374533145624236,0.0659688923970615,0.041897191979127224,0.13438722630605227,0.1892123641955824,0.1782258363824707,0.10536825519635529,0.0024421107682537913,0.00857617062941829,-0.026067644214611108,-0.006829520824890245,-0.00905455289934276,0.046228334199172605,0.06309985961504316,0.028915695711180023,-0.014685041600240395,-0.0022573224490643473,0.03414499315774888,0.5780076892485454,-0.03624189775250908,-0.0715645070444951,-0.08393586623160688,-0.0953737535621304,0.010662654833327845,-0.016318878281864735,-0.020157541235100718,-0.08725722956264476,-0.04160980737525419,-0.07602459070677939,-0.05432857087286086,-0.05405049146581262,-0.017289292795571565,-0.07227100007527254,-0.04043836575805579
-0.010363548545549384,-0.011147399094621147,-0.05260957205376274,-0.05266494951556626,-0.07443876693269902,-0.05337487076380419,0.22573375173282564,-0.0637854252877948,-0.18376780366650672,0.851819153235089,-0.04624201921505214,-0.06286402078681895,-0.017827307336891696,0.22331357864879128,-0.05719566945406948,0.0673621205095476,0.0546247861219068,2.356479517146015e-05,0.06920884282447393,0.06219845110071054,0.09222011791963525,0.06937168767145396,0.056951577353681504,0.06297246838979642,0.021031681605210517,0.019448501914317462,0.025518735173825635,0.04936258776192681,0.032350188175199635,0.07998600448176496,0.22238159783472633,0.13500168417840963,0.180983874332442,0.137310604783487,0.1280965040887745,0.14689939074656588,0.15906734787337473,0.02458883285911967,0.2887319453779523,0.057779238994286164,0.03158230925173566,0.060686086378587856,0.06755237345284903,0.03917987371314163,0.1399928995404942,0.220606292978078,0.18703491817412088,0.10514577941901215,0.008653893000226953,0.0021003068363010247,-0.025271332655738166,-0.015320265367901431,-0.010612412291525125,0.04656943764974941,0.060348613476068125,0.03081921003189092,-0.01736846895863156,0.013389504980504285,0.028105904585180363,0.5589881599150016,-0.03201792479654858,-0.07798212594156106,-0.08916569855466641,-0.09551054650627666,0.010096105215999573,-0.016311538213485854,-0.021073162344996177,-0.09259682136391409,-0.04453068824961179,-0.0706145168250594,-0.05843922312147354,-0.05775362928955094,-0.021759870391101666,-0.07001380667527873,-0.0355289134473665
-0.009465498151284446,-0.006259467309462696,-0.04885021773582139,-0.05492090583546154,-0.07607834539115255,-0.059220565361886884,0.390621354415139,-0.06533475203965838,-0.1661666861093904,0.8736316337311645,-0.04114117111237278,-0.066085733785284,-0.02081984907914891,0.3671821141342043,-0.05749321622333438,0.07108323102734304,0.06511170833859492,-0.0002679201544802945,0.07729735200400134,0.06227959042050468,0.09405192980170896,0.06566222718744208,0.05773595474313775,0.05938585456510648,0.018425591464017566,0.019369679044129784,0.019672143157133504,0.04899960850990848,0.03184696935432951,0.08191256469080799,0.22501637676981556,0.13175046057597284,0.20944976653662806,0.14569050537810302,0.1262772249943016,0.16447318246812814,0.1657839405667635,0.021596428657316258,0.30327061974413516,0.060546527641644254,0.03730498539439775,0.07439666191066685,0.0675857443827731,0.0354538882067843,0.14579516136778525,0.24715914567950248,0.2038314551591357,0.09993692761989215,0.007958695429288953,-0.004444895976565166,-0.02328633969283217,-0.02050483174078921,-0.011971280130368717,0.045288045255622245,0.0639119884058339,0.030313783036253317,-0.02007132863269262,0.02846892704259596,0.026171553875020015,0.513036082175365,-0.02811602458493828,-0.08079976581040596,-0.09431691002675158,-0.09541955449224804,0.009735643758160495,-0.015777003991295002,-0.020751242000653536,-0.09547319590833334,-0.04652323319634491,-0.06713473041116225,-0.062282266297392586,-0.06186293054256767,-0.02662342523969352,-0.06878782891335805,-0.03342134477535921
-0.010922606218515013,-0.003649355875921634,-0.04594615997681173,-0.05924296867069316,-0.07605804296533308,-0.0674145146330194,0.5586530967893881,-0.06493453150496281,-0.11815005631706023,0.8354956427616061,-0.03783858463262718,-0.06825621850541247,-0.02443804397702687,0.5142055049686625,-0.05691291343797014,0.07106961923205446,0.07225039368480424,-0.0006936571947827042,0.08307994775729333,0.06416554826755161,0.0939741260425686,0.06244417879875497,0.05949100803931939,0.057135085223580906,0.016487518000088297,0.0197673578147326,0.014544613404856133,0.04975565515236269,0.029965433253992924,0.08279483519357256,0.22116113104048873,0.12948263617124112,0.23690441884283153,0.15701605386385598,0.12412216404915855,0.17695465045369396,0.17755096750932853,0.01615291787208184,0.3187370797563749,0.06483649201857611,0.04583778546930617,0.09176205162328543,0.06668062849130707,0.03147135014192187,0.1502719778281747,0.2631345885828651,0.22377278445456594,0.092172326323543,0.00164597483490736,-0.011323712386041684,-0.019414614059631158,-0.023252791063647804,-0.013100324250003542,0.04418556305989885,0.07426260543039986,0.025378522055513386,-0.022527674899010197,0.0432770019151833,0.026757214258335882,0.4397498584044671,-0.02636940243755334,-0.07925157398651797,-0.09791941652075595,-0.09513650917648175,0.009315882760424388,-0.01511699043210879,-0.019574173862060174,-0.09370300155306602,-0.04703014302776087,-0.06688305203937475,-0.0660027734874179,-0.0660394504035281,-0.03135055217108623,-0.06813262216972343,-0.034813688463960935
-0.014739271425661143,-0.003339108243838873,-0.04280719223402929,-0.0652104478613557,-0.07383579002549057,-0.07689123872097603,0.7045245092495815,-0.06310016790119488,-0.0342735165701715,0.7495095704815173,-0.03722793903287008,-0.06969670039539352,-0.028807932942280068,0.6411929027635273,-0.05446014438054769,0.06666854636603847,0.07529213366880894,-0.0012356275343008427,0.08667572691440906,0.06741403423831949,0.09214545779248995,0.060382600512920104,0.0611078958127782,0.057865014101185386,0.015480054098306772,0.020291840728270172,0.010770235790507843,0.050925689876510805,0.028271722883881356,0.08270565682592557,0.21242968924019467,0.12765517003093163,0.25675210096911527,0.16626873723840552,0.1219093242778092,0.18513586943865445,0.1887896693189367,0.009379019575856462,0.3274289916366092,0.07063833584982648,0.05821686026273054,0.1114444630029191,0.06575083309318197,0.02735635275083903,0.1526687283738103,0.26441035315208683,0.23847735892131394,0.08495998667490001,-0.007376295000767363,-0.02000898080815694,-0.012949120687504673,-0.023863271134517194,-0.0141576175612807,0.04435187127208917,0.08706245067715612,0.01720629448194355,-0.024502672614510557,0.058803105005740985,0.02860634388056238,0.3413222952028797,-0.027912944051924737,-0.07418536419140645,-0.09904409898202886,-0.09520468103069668,0.008713138533227638,-0.014668961965653926,-0.01803150240564183,-0.08660175492802738,-0.046106545170813334,-0.0692480289794585,-0.0694693978110344,-0.06941198186337894,-0.035473079183281186,-0.06762655821884594,-0.03897351067543062
-0.01994872535155104,-0.005095182728898806,-0.039374608859934226,-0.07149079533035373,-0.06958197742819905,-0.08618762518101565,0.8056188406892777,-0.06076812550586841,0.08583327954894146,0.6337556971052841,-0.038505711366879136,-0.07139605190639255,-0.03375031050113787,0.7270484044785867,-0.050815341328530744,0.05910047256497453,0.07422888167060204,-0.0020796488639490684,0.08827554432058127,0.07100036897787743,0.08974702795659018,0.05925745204190702,0.06332699248100448,0.06171503523700961,0.014568327511969681,0.0193513543116296,0.008636704176530507,0.05201925281914466,0.028378447110742,0.0814652605672257,0.20255883387866747,0.12679275556723857,0.26526755493144116,0.16920157057323182,0.11821510951028935,0.19044747045247112,0.1941150152974752,0.0024257633212983465,0.3230889986038603,0.07727700337669996,0.07478337775299226,0.13169165826173201,0.0653643734386129,0.02342406949740422,0.15340515554065048,0.25182974196399444,0.24263935806866677,0.08006129450721833,-0.016638397869587984,-0.030253697311070193,-0.0034037255159645174,-0.021570689229143403,-0.015391870815791214,0.045845069361815094,0.09581181562602437,0.009347145327384898,-0.02596717620456046,0.0728844074823014,0.031799011716636794,0.22102418543726698,-0.03237057024698714,-0.06835954121103,-0.09794188768892936,-0.09647889514009167,0.008244902778488994,-0.014398645180394132,-0.016589224484529375,-0.07630936633677252,-0.04433986656913924,-0.07243960165875354,-0.07196167909367823,-0.07147223467081573,-0.03827751108832311,-0.06728457615748196,-0.04436616239190444
-0.025327755685936565,-0.008959931839029767,-0.03572044623168222,-0.07621750765864024,-0.06377692319545769,-0.09404055823326618,0.8481975707341227,-0.05957477131891936,0.23533209451347645,0.5070178019123707,-0.04064519802748642,-0.07366318608482937,-0.038613391408035005,0.759089324510573,-0.047063862555036196,0.05103751126441736,0.069953351342254,-0.0036151619135512125,0.08796444271547521,0.07346583353188085,0.08841154533704343,0.058451981674039866,0.06734997069684234,0.06714688045402406,0.013113699671594814,0.015849460689167483,0.008814137570944514,0.05305805442920819,0.030600262659452815,0.07955356869695673,0.19360454345649336,0.12672806402555536,0.26296648991111005,0.16590098046169977,0.11255904771436553,0.19358648843363102,0.19196458395074156,-0.003166279616013179,0.3030867398142487,0.08334950433974775,0.09395702077775303,0.14905670883890854,0.06595544640126894,0.020329576771260238,0.15297779794722666,0.2278564609347562,0.2328837638820659,0.07640900466583556,-0.024169551848253312,-0.03893984472352696,0.009035338082999694,-0.016460752587000915,-0.01686643507663274,0.048223560251493436,0.0959799291327017,0.003525829272166048,-0.026900304715006484,0.08053700642960165,0.037592400525848224,0.08605683888139082,-0.038796099536390266,-0.0647580608700048,-0.09525202106540073,-0.09924625813899857,0.008280709587427548,-0.014024006606138228,-0.015868371790548286,-0.06642346948541353,-0.042808859242413344,-0.07470628694349565,-0.07263267713760124,-0.07235254231592811,-0.03954435529039868,-0.0671666905601353,-0.04957234788938589
-0.028995386529777983,-0.013966636286383838,-0.031558018427018095,-0.07869297982484387,-0.0569771791604107,-0.09786090988094365,0.8309006847781115,-0.060778589975745145,0.3992499322769304,0.3846237477728631,-0.04326421576870629,-0.07656455518708523,-0.04297665397978047,0.7371429831596118,-0.04422076986738516,0.044896780584216534,0.06399527577802211,-0.0064032173112199,0.08605833544081698,0.07386466425408811,0.08893335842204331,0.057204606022163706,0.07320318952658822,0.07207992410114172,0.011092306785252859,0.00931004110239031,0.012755004143943371,0.054093013708990334,0.03381305199386497,0.07825649231082743,0.18540592184311355,0.1271519359475599,0.25229329747297535,0.1594083359155516,0.10533612335236953,0.19644247451846408,0.18465389557375966,-0.006311194313176727,0.26509108568874584,0.08812854912258039,0.11357351768461355,0.160461229291749,0.06814787815891099,0.0184615452872271,0.15186189254165272,0.19666879027037276,0.20934585339451317,0.07342840248144511,-0.028118147210558386,-0.043723879833728274,0.023420713710542218,-0.009898586303350443,-0.018540047703948126,0.05053775167128216,0.08574116139916144,-0.0003293557872153796,-0.02727215669055072,0.0787593405382267,0.04593970305864259,-0.05151907783005011,-0.04649145882524705,-0.06473543013054289,-0.09147616534690275,-0.10256856900233075,0.008814896412104867,-0.013116792502946617,-0.01606297901108672,-0.05952689736028846,-0.04254650363944934,-0.07516426445364136,-0.07125426911801208,-0.07243526265829553,-0.03946041460797445,-0.06731986702580595,-0.05329661581594666
-0.029746787308402384,-0.01817020150203688,-0.0274183532172,-0.07873568495043728,-0.05078286569738322,-0.09314788837364055,0.763271883734031,-0.06505633446271414,0.5573802835304302,0.27792582987646053,-0.04558532373110871,-0.08043380178752277,-0.04622208925590471,0.6714132015544795,-0.04265518753856207,0.04208379635590476,0.05773074247431753,-0.010719382682248813,0.08352870970579429,0.07244788582736439,0.09091528183100739,0.05499111734671902,0.08021101533066266,0.07452646258738704,0.008842655451457793,3.130569996889765e-05,0.020729892266850847,0.05505897839970475,0.03677733901106073,0.07872426967470769,0.17989365662267476,0.1288390265610716,0.23670827900273328,0.15387677832533597,0.09763514437261855,0.20187559592972903,0.17723819232874893,-0.007204724999377243,0.20735973207121117,0.09215177697553123,0.13186784098182291,0.16395250550634433,0.0720469688969343,0.018134201894890123,0.15017159337652097,0.16556168829528906,0.18036750906737808,0.07314340509107065,-0.02749369606785379,-0.04417925051086313,0.038281413068298936,-0.003430249561726606,-0.020395842153921984,0.05181764746036588,0.06640974752136841,-0.0025012984781901393,-0.027259370847069225,0.0679530571160693,0.05529316335115009,-0.17844568067298858,-0.05463578931638882,-0.06770776966470415,-0.08741758384566296,-0.10515903558613515,0.009598667952087081,-0.01125333686598129,-0.016694605084206504,-0.05655408612127802,-0.043891876225292975,-0.07420462465624464,-0.06835070540681859,-0.07223975803309698,-0.038187141473350894,-0.06790539118564282,-0.05469592176587529
-0.02853719151692559,-0.02036524005846438,-0.02385720109792612,-0.07576285500727349,-0.04709476499880133,-0.07433968031600983,0.6607229852589716,-0.07297764202573942,0.6892066775736853,0.1939350642012794,-0.046776672971280325,-0.0845738900337765,-0.047705625878811816,0.5771640970151339,-0.04161988389820051,0.04278653304599389,0.05206294653640586,-0.016086912408209253,0.0812797112329422,0.07044172202815446,0.09347810767415499,0.05183914348151453,0.0872425263435711,0.07324628723214333,0.007018014519031168,-0.010301781646650077,0.031435058626556045,0.05651630412261344,0.03907987972496585,0.08135824633838984,0.179765890534199,0.13209073942265814,0.21876048994293962,0.15267322062408417,0.09221786009671218,0.21180014559608684,0.17399103937930438,-0.006593356760551561,0.13298514059415834,0.09632941197584743,0.14663406044129268,0.158449805789455,0.07709386271041141,0.0194933797019623,0.14697653765955743,0.1393728759024221,0.15560730408051404,0.07637509005379617,-0.022269835074240407,-0.03970172138033712,0.051879428943107375,0.0012769412822229431,-0.02234738855398341,0.05190336203856494,0.043221172796600094,-0.004550949041846386,-0.027160039993515017,0.049820591356452615,0.06421155715392057,-0.2830358119934543,-0.062425491989054865,-0.07146766377231595,-0.0841337337517649,-0.10664756440850981,0.010422730009400527,-0.008450054959683762,-0.017455139972228473,-0.05728415167043918,-0.0466324801911171,-0.07275213150283572,-0.06494370090371565,-0.07222808001737338,-0.03623473319755666,-0.06885329786354216,-0.05388435198908348
-0.0265764305167715,-0.020113950296854338,-0.0203518096290327,-0.07012616906196811,-0.046669963211522114,-0.03449340800803634,0.5407612910157016,-0.08405334791663421,0.7783047473191796,0.13397931821784706,-0.046830142625922805,-0.08764419469716166,-0.047984522845239616,0.47138952961788283,-0.04118925125206249,0.04599907151111349,0.047521245805410284,-0.021419378556200463,0.07938456474256916,0.0692803664684497,0.09606830376132869,0.04780581406171247,0.09263258994042445,0.06848178113555403,0.005923953267424342,-0.01954659826351235,0.04366179113109381,0.059331953540167515,0.040953903873769404,0.08593367153866016,0.18506531475778543,0.1363867373754062,0.19897939430343803,0.15619356510740845,0.09134973427478654,0.2275480934744607,0.174622466835343,-0.005305778828576413,0.04845775932014129,0.10139748848846541,0.15600963402885715,0.14621284966773196,0.08288135812853459,0.02185069834713871,0.1410513722425356,0.11787838103736281,0.13772669433215712,0.08092070920001238,-0.01276745779368288,-0.030196115065217022,0.06271085538620191,0.002948699281487721,-0.024334022915547038,0.050839693585031154,0.02241740524406588,-0.008337693984147299,-0.027272093039361373,0.025463654758748844,0.07074978416233535,-0.3577495638582134,-0.06899317397586077,-0.07351740658141875,-0.08253368839547878,-0.10729213806186638,0.011223385630202753,-0.0052042034144019755,-0.018497340815151697,-0.06051450714553269,-0.050249867528767866,-0.07108884173190796,-0.06217551619178868,-0.07268807218773252,-0.03447690048892216,-0.07000550537654193,-0.051408942451469875
-0.024149733802143775,-0.017267430709961007,-0.016688166452436246,-0.06332365427349332,-0.04986518306778348,0.03405009974656756,0.42025040258981117,-0.09628901139043222,0.8162321963334933,0.09477319789853716,-0.045631023101597085,-0.08947928855769696,-0.04831064004672543,0.36912160456912724,-0.043118748473133656,0.05066305204862587,0.0441346905694886,-0.025527044818599798,0.0775532054403899,0.0694979848537376,0.09899185754839501,0.04285437485873589,0.09537946633943373,0.061071013685147335,0.0050604520000939734,-0.026006816702945135,0.05603866257876211,0.06342856584235235,0.04301859317705081,0.09171836709921999,0.19508869765749115,0.14178888220718644,0.17904840943963074,0.16257818465086704,0.09470418630413491,0.24875141747378116,0.17619589702801108,-0.0043960945591243195,-0.03984657258281887,0.10731102129015924,0.15930707974161507,0.13321609706819448,0.08906252065532583,0.024253344337259286,0.1314243385474918,0.10323031773819469,0.1270843729412663,0.08432568614424196,-0.00043368484289929565,-0.017581725993236152,0.07004053448644826,0.0019030227005716882,-0.026427260952707726,0.0485759456538194,0.007172974772284568,-0.012726519905726819,-0.02796181394084593,-0.006661436189474734,0.07175234543074482,-0.40220795948352034,-0.07306159253357464,-0.07286084777181265,-0.0831124850419385,-0.10711327954489114,0.01212188330517705,-0.0019445834528794004,-0.019824538134810887,-0.06465218877899448,-0.05385709667629007,-0.06904311824693352,-0.060616062654352154,-0.07396505263969222,-0.033709792339572886,-0.07149189849676046,-0.04788066022267143
-0.022093073949210895,-0.012878814241304659,-0.013403448354208064,-0.056529230951576456,-0.05706325719058486,0.13601163144760176,0.3117922973241537,-0.10707620576570392,0.8040385538417725,0.07062731072520814,-0.042875001003467694,-0.09042586701717148,-0.049328481131664936,0.2794209822984127,-0.048266555995114147,0.05634946251698192,0.04171740065172813,-0.027448211935889755,0.07584270037947727,0.07035577945655891,0.10316217473770106,0.03762866667249998,0.09579255330868608,0.0514393421481234,0.0040936614945261685,-0.0282562064399855,0.06642680631515807,0.06761097669696692,0.045811398355903754,0.09787360324173822,0.20863313101974257,0.1477481938883467,0.16170316452955258,0.16935389118049682,0.10122597954344459,0.2705746541810312,0.17700086983785313,-0.004362377832793363,-0.1251545665412218,0.11264947971339556,0.15591413147818023,0.12582987679858137,0.09486329257749126,0.026401910085984748,0.11632717009337257,0.10019667595966464,0.12524318066699225,0.0848669422602416,0.012386888701519105,-0.004311337398341775,0.07386510339242747,-0.00073229432293892,-0.028609722079237287,0.046171118938768796,-0.0026071448235689965,-0.01503396477796104,-0.029482277224133352,-0.0498484542113693,0.0648726164012493,-0.42145687288449274,-0.0738484152089468,-0.07012841741677464,-0.08518424815322352,-0.10597880280838079,0.013158365177216025,0.001136869851074751,-0.0212486395862444,-0.06862132772187135,-0.056569425224478415,-0.06676831182576407,-0.06001700889585859,-0.0761999806339671,-0.03473391608373272,-0.07322593979596242,-0.044205436456478536
