-0.05292916787046981,0.013364233972577244,-0.17473386211405612,0.1000457810453475,-0.003771698957156122,-0.23248396552259265,0.22299711286632928,0.053602796522421725,-0.06490590732696089,0.009595142531784895,-0.024973009484988373,-0.053475307787891,0.08002729646294926,0.1298661402721195,-0.11584558989460003,-0.0026071703832416526,0.07415921167196832,0.013653035771592825,0.03600278631250109,-0.06183591404393851,0.03574509094236222,0.015367556273376048,0.008571689836771368,-0.03414690047933899,-0.0400077103696288,0.11231145867084669,-0.0021825425388997677,-0.014378973551814278,0.01593777407048136,-0.06126828157272235,0.0286580405447443,0.02248866583461906,0.03603030354636694,0.053037848725647097,0.05251122209494785,0.005883422789508597,0.05235780595717243,0.008241954642312033,0.048516868113028244,-0.010723953170213463,-0.016421361643705112,-0.007855868462706361,-0.010715168461080005,-0.0021158356496523423,0.005315577890951384,0.004662502609481617,-0.045452965366509335,-0.0658287381685925,0.013075063636751594,-0.026558191357138855,-0.02515928606390544,-0.009413955174446903,0.0029064984072439404,-0.008469557629865176,0.008388633357885922,-0.0274439803884029,-0.0038683773938119614,-0.035910634722726265,-0.03563452863913258,-0.06299926809068984,-0.08620718644596304,-0.03939241316947251,0.0010795579618980145,-0.04045610706306513,0.11868025459006704,0.024139854094879398,-0.0327022378377293,0.09215474532623746,0.0037561962876828114,-8.090523542525485e-05,0.08928835034019644,0.126349288036136,0.19931507377286523,-0.07740093271485377,0.016696604227470824
-0.21502049953611369,0.10580269144821797,-0.2109529683284686,0.1333671057223345,-0.05764907535467023,-0.184673077725506,0.24436170728556195,0.07117538819226743,-0.044926160938273174,0.021615395880824395,0.08981577691161663,0.06363191115163658,-0.10711405821349862,0.17907802658884242,0.04880362466630794,0.006568258785174086,0.017903394540474238,0.006789589815652586,0.09012868282048248,-0.0683313138198327,-0.013107761320056865,-0.03276500691794182,0.06415618991802718,-0.015061797271474497,0.10735490606015297,0.11317186909881072,-0.0442781475655879,-0.10555103689118156,0.047450697880163095,-0.06217817379615653,0.0361389598076457,0.010936699756011525,0.012944153163570116,0.09742334041167611,0.0476060806751738,0.013064040934301135,0.03707015367516897,0.011876067549721148,0.07450493981723227,-0.016307307931229142,-0.014468729848494788,-0.015617873429463303,-0.016599817583009102,0.0003816368406810433,-0.004888472169757407,0.01722545884165963,-0.04142839260881101,-0.07870215897969501,0.011369663322120943,-0.03668999096131888,-0.028204175857980435,-0.011170303318923921,0.0002783180230889748,-0.019600454022157265,0.0055383946522272465,-0.04323706009613598,-0.008893896646661403,-0.04625317296689685,-0.021131520213450827,-0.06666945109110234,0.018518484748573538,-0.055155552026189936,0.05485093977241007,-0.028768506023010065,0.2373152518677517,0.05020903479790817,-0.04312643605472383,0.030485392168035252,-0.043416555495420894,0.01762635579095395,0.019645421859948886,0.10157504241531434,0.1591949980401965,-0.17589137497125149,-0.015291416576535932
-0.3553140117096172,0.18282079542592578,-0.23974327397743944,0.1632369429707991,-0.10189823304475032,-0.15008527404607158,0.2528102232296474,0.0863088452878168,-0.027065333680073356,0.0287568346766216,0.18506790964957437,0.16372639593392602,-0.2667555876283384,0.21870922364735368,0.18478202441425684,0.01808420539304678,-0.030772406477892922,0.0004126160822067737,0.13600082062802077,-0.07133442514149257,-0.05478045444785529,-0.07341093489813183,0.1144915595081405,0.0006149419665640865,0.2371871794784599,0.11257171819533307,-0.0827801324195293,-0.18147985522341703,0.07372922783095714,-0.06065216079129859,0.042855148742756644,-0.00012760883631823816,-0.0061746219281844095,0.1344217270588669,0.042659437588347116,0.019193658278824577,0.024741928341326158,0.014663884264749405,0.09779838916772077,-0.021022209797305624,-0.013342339524110791,-0.02215077585147951,-0.02275349561248108,0.003363265012442551,-0.014203628701332072,0.027764341220823163,-0.03936954094553405,-0.08887703891050974,0.01197762525046614,-0.045281670215542594,-0.03105149452577899,-0.01475132703470372,-0.0015734176373794206,-0.02835577896871372,0.004040246848877216,-0.057798505488116825,-0.01340010404945935,-0.05529580344741114,-0.00881337749139291,-0.06987528258629166,0.10391700561976136,-0.07466439189706786,0.09594982761229276,-0.020060955198066388,0.33600332753315876,0.07057088064083106,-0.05197888572283399,-0.023453140503197578,-0.08507856774733391,0.03392484358731784,-0.03924185961285864,0.07641568409938737,0.11625760686966763,-0.2545080661065571,-0.044911817446686625
-0.4574705114775276,0.23587510299518788,-0.2599169444440964,0.18542306521401003,-0.131379165174334,-0.1334269759084853,0.23512521000996722,0.09416790011802423,-0.01088211695192054,0.027142935925035028,0.24695162735560355,0.23563850623776939,-0.3842579428363233,0.24159098351731112,0.27898389364932363,0.03198712260656822,-0.06562750088135044,-0.0065879293698706265,0.17135431440903992,-0.06960974053559543,-0.08496255535218755,-0.10154126627894661,0.15381497016766243,0.01119091677922035,0.33688312594175984,0.10791504883850722,-0.11649347617104044,-0.23427538337368325,0.09170183891992023,-0.05702029755861371,0.048425463668108404,-0.010201093142835682,-0.01868307298184102,0.15993894325228053,0.037704212682180493,0.02362047223227015,0.016965086017774245,0.015656982463703173,0.11608432042735117,-0.02430120227249788,-0.013417207995721547,-0.027096507432926686,-0.028724225961634042,0.007471342955964966,-0.021741879878367898,0.034609005798957454,-0.04038589750629196,-0.09528516213040374,0.014950818904566981,-0.051031218473924306,-0.0336004641065302,-0.02014187696662642,-0.002544748553954035,-0.03329775485851738,0.004817535803799511,-0.0695967207196217,-0.017107120451687885,-0.061728001196180604,-0.0004803350795682948,-0.07317800906016339,0.1598099852581144,-0.098758740010783,0.12030066918493709,-0.01477266479536088,0.40354263917738986,0.08066079564341666,-0.058365663550143776,-0.06451755168554218,-0.11781368471889403,0.04655920004705738,-0.0815921931817124,0.050687643777499125,0.07169010641010937,-0.30546661473334313,-0.07219998335777714
-0.5178160686277591,0.26412360241266275,-0.27605815205195394,0.19578206156484873,-0.14481367533247602,-0.12991601996249436,0.185877251869067,0.08841354905483745,0.004025227634082196,0.016073695183690784,0.26855975937321225,0.2747172235466988,-0.45974877278941995,0.2439747116895028,0.3369515878728806,0.0475767356778759,-0.08433405919524928,-0.01468320723459815,0.19895283600582603,-0.06440390887930025,-0.10175417592209057,-0.11588952107504397,0.17785728291149017,0.016699254717716938,0.40135007945216483,0.09520199292690157,-0.14698667798753093,-0.26515946261318074,0.10308452448195016,-0.05392685628212235,0.052848185648460944,-0.018834308958351254,-0.023561369534336407,0.17388178253136843,0.03344628238309322,0.02600708811442043,0.013518499134621997,0.014337086993361448,0.12817679261058468,-0.025640260863585174,-0.014540893142453104,-0.030328433824301393,-0.03361769997788533,0.012862064203070567,-0.026805945737273074,0.036774031754461395,-0.04452776920007728,-0.09837750035261596,0.01843197234899807,-0.052630686189136064,-0.035811395441877863,-0.02515925215960639,-0.002860886484419123,-0.03439091187760618,0.0077510572355384,-0.07726739797506477,-0.019864939394134223,-0.0650085990615191,0.0030821473006293343,-0.07771887829920243,0.18768847187241344,-0.1229366678193703,0.1307513504645489,-0.012516261448853316,0.4366699604939154,0.07978725910483975,-0.06144060324987788,-0.09066764401306093,-0.14036985731685436,0.05535121916415553,-0.10639935904059566,0.02638054286417335,0.02880811355913032,-0.33155692909546186,-0.09705037041859677
-0.5437106551878025,0.273400488605387,-0.2952136502883316,0.1895547222464144,-0.14299959355457237,-0.13203485931327308,0.11511244254563102,0.06712446800221517,0.015549566728197961,-0.0023346194347252935,0.25166469642993655,0.28345976126439143,-0.499817389687259,0.22788882554158474,0.371865582772529,0.06391423056872847,-0.0879993318680895,-0.02251686344729531,0.2224378169341228,-0.05730741793852856,-0.10478592581955049,-0.11917321385626134,0.18433438138002478,0.01919394714595557,0.4316221112332308,0.07060287578963631,-0.17678868726426786,-0.2801113714041631,0.11160165217866769,-0.05292724216713235,0.056183351960223726,-0.025734311728555337,-0.02171096774733816,0.17861058315194756,0.03060228778175944,0.02680845826827305,0.012926555049341482,0.010858023333746303,0.13366830701155197,-0.02433556987393426,-0.016134994010276182,-0.031189643101861453,-0.03663593551453026,0.018571900115171402,-0.028983420767315637,0.03442113071984998,-0.050941403564478266,-0.09855321939576066,0.020759224502783502,-0.04946555095652888,-0.03751229768920675,-0.027340181468178085,-0.0026661745434898854,-0.032543643362494434,0.010981465540753493,-0.0802045046400175,-0.021538631705168315,-0.066108291393109,0.002117400900464056,-0.08405427682334593,0.19507826499228853,-0.13864033515146768,0.13084391279804408,-0.013883575692058114,0.4355251905115881,0.07093986746161862,-0.05943174827564879,-0.10304904352496702,-0.15276663885326897,0.06360205055539592,-0.11519220163456073,0.006207201243723981,-0.012112908862112748,-0.337839074192812,-0.11814669261950698
-0.5468187820699209,0.2727170709986031,-0.3213708109145837,0.1627508620574089,-0.12949319755752753,-0.13695211788852168,0.046572772343231206,0.03507870889584508,0.020471281466285185,-0.024897088150074465,0.20701360742024616,0.2725806081369907,-0.5088362291553735,0.20205031005901242,0.39181487138289117,0.07869622014151867,-0.07899593172718705,-0.028905856292572862,0.2443404129918325,-0.049803662188854125,-0.0964362174574025,-0.1172206989579947,0.17322935681483775,0.02214469642555561,0.4324506909553798,0.03476429877725851,-0.2078161651158007,-0.2847769035472803,0.11812900978512308,-0.05372762484350674,0.05867083158951747,-0.031027953242921846,-0.015760180710212124,0.17748931039135973,0.029296691130717645,0.027033253397908297,0.013694807945985432,0.005793634566589323,0.1327296320752055,-0.02014073809427075,-0.017408106197599027,-0.02912525615503536,-0.037489201444875775,0.023163793083352924,-0.028319320196967368,0.029067953577552735,-0.05841544845263605,-0.0959277055953721,0.02150849248565473,-0.04243937029523387,-0.0384459305595328,-0.026139522400968757,-0.002141410581591563,-0.028903986360236944,0.011613180844702753,-0.078910401312425,-0.022057498109925938,-0.06699469492057902,-0.002409652717168309,-0.09151390272818283,0.19012280164858242,-0.1388333478635584,0.12355739416087952,-0.01984765391469745,0.4026009473843576,0.05887720726625589,-0.051179977434361534,-0.10551370370006419,-0.15633682666163495,0.07427246460655246,-0.11136203957875412,-0.01002834017799381,-0.050580638900126706,-0.32797324906955655,-0.1358158520274642
-0.538413775923108,0.26786084877537586,-0.350570802958435,0.11808811297569838,-0.11096795258660264,-0.14641411141292515,0.0072233188547223826,0.00018358999594592085,0.01629495687411453,-0.047584301364055503,0.1491012178485121,0.2563271092907077,-0.4905836143429622,0.17722472336611717,0.3983119818999624,0.08902857872387959,-0.061003446643019765,-0.03376845168714104,0.26485984459419876,-0.04445062315692261,-0.08123169698872523,-0.11548694106172985,0.1480793879393646,0.028044768612561444,0.4117580259909831,-0.004988445421770349,-0.23988899952310233,-0.28322097382513967,0.11999226639896055,-0.05730477704814835,0.06067042315694038,-0.035336178384890005,-0.008954281015687515,0.17382762854215772,0.02985692479511526,0.027220692457988416,0.015131725299316057,0.000123474437607074,0.1265717596060969,-0.014080545376962905,-0.01771594699792356,-0.024728218802576696,-0.03638993496555898,0.0257791061957785,-0.02568301635913861,0.02313240669743649,-0.06621362899309605,-0.09167122691211167,0.021034064285368692,-0.033206248360300755,-0.03861592229976121,-0.023158161163102292,-0.0014980953800955987,-0.0244977010822906,0.007809060530018008,-0.07488782707915037,-0.02133442609946734,-0.06919005962071509,-0.008920437155139571,-0.09839626050438913,0.17874413376508125,-0.12277226143353426,0.1131507499474429,-0.03037259195481168,0.343455425943639,0.04836376660865338,-0.0385117585162052,-0.10275246511121017,-0.15384956896285934,0.08688462175611977,-0.09899663193529928,-0.023746767584458928,-0.08105711734481175,-0.3065223168686435,-0.1520198667140758
-0.5243598423374806,0.259920715756526,-0.3741269702352429,0.06656194915915387,-0.09431554751701599,-0.16098633147246538,0.014792094425845614,-0.028870737739829067,0.002112867000615415,-0.06625837710299337,0.09200508662023277,0.24566151275199066,-0.4542585034745934,0.16041234618680777,0.3929302594563675,0.09246768384296455,-0.03878804721450935,-0.03713697973994501,0.28062089910736654,-0.043310613602494996,-0.06373998845645512,-0.11556462147100482,0.11503212840203747,0.03725666183275156,0.38024310942908013,-0.039333568082727255,-0.2687973199534458,-0.27849428045995767,0.11409898530036111,-0.06620950213267518,0.06200841332188223,-0.03918917090633889,-0.003987446020235708,0.17005402967218597,0.03276613826928132,0.027706876067135622,0.017217640743231954,-0.0047233242063455805,0.1171941866903834,-0.007926445137729443,-0.016692138157528014,-0.019588944639564065,-0.03360157029222466,0.026339921143480938,-0.0226343527700813,0.018816455450547914,-0.07376142154622604,-0.08821589657279028,0.019819269876748175,-0.023256319694667876,-0.03828832206346666,-0.020646059002759592,-0.000839787543776449,-0.02023651774007562,-0.00015727738348614295,-0.06976571814984744,-0.01934658629189029,-0.07294437202276222,-0.015750223098260935,-0.10260230279060029,0.16158208998594403,-0.09531963287536738,0.10413203372410129,-0.043586556064170945,0.2672949327895844,0.04127545058348192,-0.024984340715797526,-0.09925002179607045,-0.14845122993085294,0.0980533655852831,-0.08091090481713226,-0.033235596516086874,-0.09758192980700481,-0.2801566737894172,-0.1673204755176729
-0.5040687281466878,0.24927186562010395,-0.38710687175246744,0.02203118284248856,-0.08358289935228969,-0.1762703254494813,0.06960081912766247,-0.045496634479438414,-0.01997978418165114,-0.07928298208612355,0.04928903844054178,0.24556879353026906,-0.41165728863594603,0.15378200107504214,0.38231890041225547,0.08775660640994876,-0.016360690754550322,-0.038727303584184636,0.2863089999652553,-0.04528954074386704,-0.04777618367924863,-0.11587154351012174,0.08065134859474932,0.048572576162614345,0.34860260688530087,-0.0622822355340118,-0.28790005706142857,-0.27202746183923454,0.10102375813524778,-0.08156129582065269,0.06207220955094517,-0.04255504763160911,-0.0022164248142368947,0.1676892954061301,0.0376106640658761,0.02896506079006811,0.02033274632532156,-0.007318801924102614,0.10689280702771065,-0.0031242054338078695,-0.014293883872386282,-0.015296047740227747,-0.029491351986748127,0.025416786056949747,-0.020617364304983732,0.016931194084171375,-0.07986060765716775,-0.08738470945766047,0.018049330069871472,-0.014011993029963157,-0.03766577655124406,-0.01964766995134662,-0.0003202317317341774,-0.017076209686026023,-0.010257177825892694,-0.06466649027305821,-0.016525766426505134,-0.0775297000729881,-0.021778947438781476,-0.10275376356620547,0.13610524522230016,-0.06352506884337361,0.09922431844360624,-0.05614294413568355,0.1877417984004498,0.035651051695129055,-0.01277414364956303,-0.09904118193728217,-0.1425284027798811,0.10346715394985762,-0.05788724807739132,-0.03304200028522375,-0.09803220104394128,-0.25406660302330875,-0.1806953443993624
-0.4777209082955728,0.23643606774692194,-0.39234070270242893,-0.00470141224896925,-0.07973128349762193,-0.1835012617037105,0.15353695153970714,-0.04889914311042065,-0.044268256174807674,-0.08829238321928928,0.030179887450845932,0.2545957039792045,-0.3711130854364947,0.15705895009674875,0.3767412230495658,0.0771702596268099,0.003984391250155206,-0.038216711499507006,0.27909745535961206,-0.04752697595640043,-0.03500520971486365,-0.11437273397974335,0.05050834900923751,0.059974196971057325,0.32388429509974503,-0.07083749168367248,-0.2926865114172445,-0.26343365019791676,0.08531259433511318,-0.10260546472891474,0.06056508075698286,-0.04530175729086883,-0.0034551074807944726,0.16739852887304452,0.04319917352032987,0.03092085136512801,0.025120804771844307,-0.006980399872862253,0.09773748232027579,-0.000474750050117434,-0.01093701106766709,-0.0126840574189232,-0.024803579778465146,0.023969733923628778,-0.020418940172460598,0.016824369685210172,-0.0835137524402363,-0.08898463806693023,0.015793532433634072,-0.006611821923311639,-0.03692841434715971,-0.019323100446114377,-0.00024278823647527759,-0.01577613700307029,-0.01946319696416754,-0.060508136619835395,-0.013773776148725103,-0.08176686916093462,-0.02632538734938225,-0.09935836546037918,0.10259246283247869,-0.03514342412883942,0.10000518161940763,-0.0652191892842362,0.12082973233008876,0.028463925748812624,-0.0020920533569938615,-0.1039140312124861,-0.1371109696190862,0.10135435362049738,-0.029861152895466203,-0.016141768380586008,-0.0825023902315864,-0.23155761677813705,-0.19100909560690377
-0.45048037519669665,0.22159319398796162,-0.3942958238240814,-0.01096398283941763,-0.08138452142230301,-0.17387395796143768,0.23703311977280084,-0.042873430560240844,-0.06402583776483994,-0.09545000518862656,0.03373641695612328,0.267858157913452,-0.3368569100365105,0.16835205499121542,0.38227079770707273,0.06577226129288782,0.02131909086832473,-0.034910377492045674,0.26078784188558646,-0.04860181942448494,-0.024554543099447046,-0.10966228707215492,0.027559890058861503,0.0696003581472423,0.3071951819050517,-0.06420584086958536,-0.28177479081483847,-0.2519587205825982,0.07129464665962726,-0.12756583533073762,0.05767614131891152,-0.04738944663747191,-0.006385820137431164,0.16871166892775935,0.048325006298195805,0.03315378253978152,0.03202044988820485,-0.004139991338457993,0.09074011173170482,-0.00012889576406682757,-0.007161870695689743,-0.011461338744276905,-0.020361631307741046,0.02270949674095868,-0.02185316121733405,0.017369973913578918,-0.08481587783049856,-0.09177063924670137,0.013826137425744317,-0.0014207471022138207,-0.0364163815660849,-0.018487838329406536,-0.0009347460615627967,-0.016579844326492565,-0.02523777691639542,-0.05790543728887182,-0.011964876945161407,-0.08437875590215085,-0.029261498300349992,-0.09455530171479062,0.06414242890813271,-0.018514116849120632,0.10725761020257363,-0.06976988446442278,0.07825419996979388,0.01708079021195774,0.0071491686567833335,-0.11225446249232773,-0.1314911434890757,0.09490764139556229,0.0008772891513700865,0.02041710408013475,-0.05496826943236488,-0.2157306255139666,-0.19668991404726446
-0.42551620189468453,0.2087218068640595,-0.39101386847953223,-0.0029866482841287567,-0.086560460086057,-0.14504316398400607,0.29212276026007356,-0.03199066448033516,-0.07488411346036294,-0.10055375202313382,0.050793263308493264,0.28247121680777854,-0.30932081997738403,0.18337032836164513,0.3950182381902997,0.05633447656996182,0.03472279166078901,-0.027319022944897964,0.23573137914155795,-0.04858286089118802,-0.0155588388255532,-0.10143350066816853,0.012336690106714121,0.07696081706183489,0.29402778745124347,-0.045507816883563534,-0.2562969141605326,-0.23788043114817137,0.06086248050345666,-0.15246651750394385,0.05407567204675301,-0.04807465265489119,-0.009468661346270446,0.17046168148713958,0.05194586942308632,0.03553020789302719,0.04056613025217448,-0.0001005546253313172,0.08575338395935939,-0.0015959573858147502,-0.003422482723068998,-0.010528281311194099,-0.016973242073616723,0.021942948162498532,-0.02358521415348319,0.017893754389472605,-0.08440904824679746,-0.09487363108851139,0.013330418694356555,0.0014259981703491076,-0.03640360960682659,-0.017141558305125468,-0.0027637496253661853,-0.019444105671307665,-0.02686908263637014,-0.05649788785875359,-0.011540906504458798,-0.08477686113458405,-0.03153270796148164,-0.09047902572648972,0.023073025461007646,-0.019863452918615354,0.11946399619678394,-0.06849437071920728,0.06295927550262481,-0.0016848001423148684,0.014123792772664345,-0.12145549714948367,-0.12436532782726761,0.08941188055171301,0.029730876676200335,0.07092376272210421,-0.02597542117497248,-0.20429836889625935,-0.19679829723471864
-0.40012543410173684,0.20507789135685972,-0.37517884391050493,0.010544774776636179,-0.09402946813223534,-0.10465339533683415,0.30338701311160077,-0.020824354535781242,-0.07569536616790429,-0.10081689793543072,0.07029757832144634,0.2972357014257929,-0.2850121700101288,0.19594156232213777,0.4050449382844279,0.04841403663337163,0.04209753025913815,-0.014273748073069248,0.20918050335992733,-0.048020275220063025,-0.008645932870716133,-0.09082392556193969,0.005496975356833689,0.08242802992678855,0.28008153607502206,-0.02175595754163495,-0.22175109669085,-0.22248376824409527,0.05495219183859423,-0.17169416622716716,0.05099650774033615,-0.04612134398095735,-0.011674734736098702,0.1719325295916927,0.053525911766314715,0.037634189734429,0.049047926979166934,0.0035286703925565543,0.08219312510289911,-0.004096825576572871,-0.0005351508212572131,-0.009059178497386466,-0.015367519006099783,0.02201925413936512,-0.024081673637695367,0.018157523451633573,-0.08302799914419269,-0.09780861685469562,0.014574004539362723,0.001227078614407462,-0.036811846972972406,-0.015660496824253828,-0.005901900048273789,-0.02417140630525899,-0.025366055294377937,-0.0553544890762645,-0.012293728948298721,-0.08376450069608601,-0.03422871536128577,-0.08793606686009023,-0.018679691710961177,-0.03952215201699605,0.13358040487143452,-0.05975593515802613,0.07115281825246178,-0.029938366361973,0.01702108903734728,-0.12988134557385544,-0.1158204472749757,0.08778511023402169,0.054471987237586506,0.1252228150469289,-0.007847149446020496,-0.18667829911991698,-0.19334548078674405
-0.3737533619824239,0.21135037429047343,-0.33984440655495896,0.023650789662480742,-0.10171019000946824,-0.06604884712511505,0.27028996702364005,-0.014519646664122421,-0.0685185879402539,-0.0935235565058053,0.0837132984409143,0.310332530734553,-0.25889486782936644,0.2002321206346781,0.40391935272378887,0.042158002161875485,0.04149210076029536,0.003022743678743778,0.18713744075824534,-0.04746841152645631,-0.004839786899515142,-0.07929456645418165,0.008087971059174581,0.08494326476307545,0.2668676915761993,-0.001495972420137548,-0.18638527358412538,-0.20720113117320754,0.05423978464578749,-0.18144550133244403,0.04949842920890901,-0.04114600821650938,-0.01225063169574725,0.17309518530828072,0.053177751318743915,0.03860074268503355,0.05504089834146508,0.00550116292327385,0.07953835818988741,-0.0068366886496791235,0.0005325492811655286,-0.0069713876953906295,-0.015329542251483086,0.02316652244460604,-0.02282521448139868,0.017713155196799585,-0.08113623099717032,-0.09974484091338749,0.01682374518180929,-0.0028773668038604427,-0.037275060226243995,-0.013930930103911957,-0.009816580391426355,-0.03011519486633346,-0.02273531008779653,-0.053931915912430295,-0.013383274371576381,-0.0826344118437638,-0.03716130273274454,-0.08654961194138536,-0.05733850371870319,-0.07255492965192512,0.14739081285996303,-0.04501946275605462,0.09533733065332262,-0.06640784714857162,0.013376038000036727,-0.13544576743276138,-0.10733288808638408,0.08991428848539684,0.0752454005472909,0.1733319063693083,-0.008559313581275596,-0.15235017909098678,-0.19001355990502794
-0.35298225602301486,0.2177820634137445,-0.284284362557363,0.032681754461848345,-0.10619229220508397,-0.03735085682362349,0.20400395760247036,-0.01633263627584003,-0.05731166645778929,-0.07776333499515342,0.08777331752345918,0.32121228462312,-0.2285505895658298,0.1936677851357711,0.3883388980504313,0.03961950770896927,0.03319815511417662,0.020613004188368533,0.1737138189309707,-0.04586378607105568,-0.004446678343307697,-0.0681749444959478,0.020010446325556264,0.08258086936542863,0.2582143595056251,0.008673035772048476,-0.15497307764837295,-0.1931171177345795,0.05894543381956441,-0.18046568746933545,0.04953625975723097,-0.03372469401198197,-0.010365313312289848,0.17390055057522724,0.050538474970984626,0.03816414072332419,0.056706874566540444,0.005349970883617217,0.0775077883199966,-0.008795350273696823,-0.0002806500619604302,-0.004381525274127052,-0.01546979492920264,0.025097837740842843,-0.020258576723943766,0.016155677320598694,-0.07803237397269232,-0.0995046069945191,0.01905634515780727,-0.010799921103572224,-0.037343275728792674,-0.011927258070323715,-0.013529769934808922,-0.036266844370566265,-0.021192446072531873,-0.051963303262821,-0.013957176549540457,-0.08170001561307624,-0.039445730672178464,-0.08589267341297274,-0.08754876366048403,-0.11022710662680746,0.15922069193613453,-0.028196325359465035,0.12697623029769323,-0.10781480574606661,0.0012741925848938629,-0.13541087374396832,-0.10040363722460599,0.09300777408416483,0.09023266839101118,0.20535034275251285,-0.029160453034960232,-0.10012157143040729,-0.1888862214995677
-0.3481717933073923,0.2132390213595332,-0.2176489758469295,0.035780453762388975,-0.10516445084692283,-0.01598068880218806,0.1242267080789552,-0.024182509220441517,-0.044993567706519966,-0.05356073880280393,0.08409712465540353,0.33129132529747907,-0.19638956070211872,0.17850109658111313,0.36159905899119493,0.04334187916464027,0.019352477631826626,0.034124162862640306,0.16823648302583993,-0.04088395653759547,-0.006616531528251923,-0.059714430735503976,0.04098894503887596,0.07493141892537902,0.25464093703190394,0.007339063974245774,-0.12754785211676506,-0.18129772014336593,0.06919689243396043,-0.16878585163593918,0.05038143573695841,-0.024681661585547854,-0.0053874447237081124,0.17423103192816924,0.04453400752722603,0.03689245485110704,0.05393823577122481,0.003294202884609132,0.07626077980308332,-0.008904147410254803,-0.0020622818202740145,-0.0013267724607146647,-0.014628429502475782,0.02741765933539908,-0.017188490649947374,0.014063961211530085,-0.07207200069594151,-0.09662590001038077,0.019981202423398486,-0.021278886824169216,-0.036690360364709684,-0.009773070154767402,-0.016337282128496333,-0.04178649329821349,-0.021924391039585878,-0.04921333137970568,-0.013884216397243937,-0.08033008118935475,-0.04085335980425636,-0.08566706306548819,-0.10477385875332035,-0.14042756874902507,0.16689981760515893,-0.012351474650209249,0.16002829264751717,-0.14993700135200128,-0.019313420756263522,-0.1288450481901382,-0.09589585570501297,0.09194388450586777,0.09713414569418533,0.21535453984553266,-0.062365190848498175,-0.03953874986081174,-0.1898102446823278
-0.367009426671263,0.19550132376473306,-0.15343096746907647,0.032767829064115794,-0.09820806496835044,0.0041319681145401965,0.05359896618532578,-0.03208436242446011,-0.03388273628920013,-0.02243403592268045,0.07764052812443428,0.34164986860540214,-0.16913615748697874,0.16048011147517727,0.33417282677413196,0.054563102841642896,0.0028114894219248288,0.04159989769993355,0.1663859702572068,-0.03165593542140632,-0.009729146787993526,-0.05582065127974678,0.0710266753125981,0.06195021144182966,0.254091009651496,-0.002172901683613837,-0.10387777829878464,-0.17285249583051343,0.08378142315394155,-0.14862097915860312,0.051417390615124736,-0.01520826897395089,0.0026651125675697385,0.17382528941097675,0.03535369417138756,0.03543860340641014,0.04844313737962802,0.00011334075537738908,0.07619561151753806,-0.006823458995564358,-0.0038507422910586397,0.002192240955083413,-0.012987371837475892,0.030041119205002742,-0.014368408915259256,0.012461983517230879,-0.06268962621002891,-0.09168764670931286,0.01813915149628842,-0.032809398240268794,-0.035369939522454596,-0.007573051102025802,-0.01793795437147752,-0.04621876743498604,-0.024369618902360946,-0.04596615281087146,-0.013656336639323474,-0.07781755971457896,-0.04195310006886324,-0.08479764533551293,-0.10774184758901906,-0.15540075138765463,0.16861825935436148,0.00024331951245115668,0.19148761897179523,-0.18682286647829716,-0.04664010322766299,-0.11746412814243612,-0.09372791567873334,0.08324413423847554,0.09732033914406857,0.2056149018144624,-0.09661811658786357,0.014209060292909748,-0.19158277984342909
-0.40613075922368114,0.17364097114886912,-0.10084441977782765,0.02389748384202256,-0.08591730678796028,0.024195868247613106,0.007437722777555389,-0.0345409384734795,-0.027698235672969473,0.011002290632842693,0.07575842617524836,0.3519893607226615,-0.1559682164987664,0.14537950998199456,0.3191966014277712,0.07116913878287834,-0.01283736095970689,0.043743669696155285,0.1628005222696387,-0.018852238850067704,-0.013285003531282591,-0.055233489806853275,0.10755919985263951,0.042682256002603114,0.25448813227099576,-0.015254494506780847,-0.08555638283357159,-0.16786124566620148,0.09819687693265677,-0.12446616206160205,0.05202208825536747,-0.006638650244970901,0.012648374294289666,0.17144346344600725,0.02508685713734493,0.03416491148379808,0.042771522799601724,-0.002914445281998246,0.07754185121816726,-0.0030456263712477227,-0.004879840022614768,0.006303573551421193,-0.011502134754686977,0.03313326441146869,-0.011981796539010825,0.011407124148222147,-0.05189115706384356,-0.08566796409243597,0.01263239307661354,-0.044397361825575216,-0.033889935071216765,-0.005779257949795988,-0.018358439263193804,-0.0492950239371181,-0.02744277970331513,-0.043005013133208425,-0.013755189884064184,-0.0739956413952664,-0.04366795366559367,-0.08173292062107987,-0.09899508408854196,-0.15926734405721976,0.16428047493806908,0.0071183137556215526,0.21889111029337038,-0.21305708328673545,-0.07714945152639385,-0.10467949429699852,-0.09281867819487938,0.06831802232613804,0.09514101529192065,0.1832966936143755,-0.12317386403552766,0.048413504816958386,-0.19281516214590264
-0.4505308477690306,0.1616790336110484,-0.06484039677599074,0.00992454290717959,-0.07035854824228438,0.03950049826832025,-0.012856642741011504,-0.028748173539763222,-0.029350467901827604,0.04000805169852534,0.083515702769894,0.3611672590335213,-0.16175597829307425,0.13530095058034453,0.32341848838057907,0.08745196593356852,-0.025209660460032424,0.04214305328451007,0.15355773712972554,-0.0038993211621818347,-0.01872805630538521,-0.05435252159935611,0.14487887845932212,0.017923252922786626,0.2540047282453185,-0.02767436111847521,-0.07514738182355801,-0.16499410878799714,0.10730304244016398,-0.10143208400016984,0.051711709763688885,0.0005740224205490474,0.02240702376561088,0.165430390292437,0.01587492244720623,0.03307833951509387,0.0391763378646145,-0.004444327443437701,0.08032623130845407,0.0017504800411927146,-0.004611011648186336,0.01090972310852878,-0.010877831855404807,0.037108364678080985,-0.009588135614285176,0.010200144712111114,-0.04292279572057009,-0.08007978062627244,0.0038579567060874898,-0.05529032068024142,-0.032956575821826734,-0.004658752655292614,-0.018033775947490227,-0.050815389040227255,-0.0309252344592727,-0.041037016182312924,-0.014328823839506843,-0.06979516099440466,-0.046561613766870236,-0.07589553255432069,-0.08302269035656384,-0.16203060188167706,0.15619262470589867,0.006299922748184916,0.24092565923419984,-0.22628127876320409,-0.10441318178116649,-0.09494965928904975,-0.09200095557988958,0.050424681024706985,0.0959209913923591,0.15733743653808008,-0.13610171025748719,0.05837525919396136,-0.1936529767104562
-0.48471997262189476,0.1676117505448954,-0.04804813555708609,-0.006531057098182191,-0.05496086914485987,0.04481362275642453,-0.01744726053227008,-0.014752732575672889,-0.03851607331368556,0.05842544965874108,0.09891854518658799,0.3669094738619313,-0.1809456386776836,0.1270582067424343,0.3439024330542243,0.09712133018951741,-0.03574110423663285,0.038562122841064195,0.1392344553429805,0.010153190098999954,-0.026913497599998948,-0.05083683823538565,0.17675904085456007,-0.007691134441744185,0.25083574768875594,-0.03571902507684177,-0.07508738188877356,-0.16245307441772372,0.11081770371834254,-0.0843098330719243,0.0507050803152016,0.006644201713712161,0.02987544422560784,0.15564956495640758,0.008812922403739543,0.03195005146878982,0.03911869742082685,-0.0037083136849987985,0.08413188329057741,0.007178013567116781,-0.0033410508917647297,0.015317842052374298,-0.011173759126736016,0.042390583786059755,-0.006757791545623171,0.008491785850152783,-0.03765326720500159,-0.0767815429806063,-0.006197563487440216,-0.06442970299235709,-0.03308952828715145,-0.003927541089239983,-0.017548970048272244,-0.0507320060413779,-0.03459639452086355,-0.040555945775371804,-0.015101874631863965,-0.0672221974905943,-0.049963146810478365,-0.06828792705694897,-0.06380842297076805,-0.17024283225596143,0.1481636419693474,-0.0021533227488491624,0.2595317500989419,-0.2244964169620482,-0.12028610454359051,-0.09247793999160314,-0.09071436510613728,0.03150727762667982,0.10338959521340396,0.13730048330734435,-0.1308065946183501,0.04589051233206731,-0.1963786621161881
-0.5003208718418235,0.1890681556335594,-0.04802072909571342,-0.022149892606754373,-0.04221501839599451,0.04051617099063898,-0.020239765308315505,0.005863158125017476,-0.05273222876748851,0.06223074607418061,0.11559460635960467,0.3659757343121107,-0.20225180233782614,0.11363507564352793,0.3735419739036552,0.09743045784333015,-0.046786542527167574,0.034909172019156776,0.12482670470999802,0.019954190408396077,-0.03670711416763395,-0.0449057022934114,0.19704813619651906,-0.027279310459842776,0.24344652553743262,-0.03847126993778027,-0.0860150754273033,-0.15802778108181725,0.11266954767447224,-0.07522223698582603,0.049581346668696735,0.011655536617578566,0.03399118135941326,0.14358759751805295,0.004256132344577668,0.030941948458754753,0.04297229853417184,-0.0010502889928806214,0.08800082277375654,0.013114670520190441,-0.00211013297883178,0.018791445453269384,-0.011631161204057716,0.04864202943384632,-0.0032756432191496376,0.006393794410005149,-0.03605913410735348,-0.07635602169525804,-0.014746416526397549,-0.07063363037253756,-0.03430871714688208,-0.0037878713046475276,-0.017187113250010877,-0.04921241604092624,-0.0373980213041788,-0.0416018074308826,-0.01549926749580477,-0.06821816457103103,-0.05221598777068523,-0.06095681012732532,-0.04429379351509899,-0.18355984433135375,0.1429600791008101,-0.015454583745651784,0.2762914088488091,-0.20473329965304277,-0.11934153976897205,-0.09926880517447101,-0.08862530376130984,0.013295508224690722,0.11477269946568924,0.12678653477279023,-0.10746485121214877,0.015257631808081373,-0.20233438974062656
-0.49295709560778356,0.21884552915989863,-0.0577263390901373,-0.03399322022874662,-0.03284436092184406,0.031590035728920274,-0.028043442044069833,0.03031316865764133,-0.06871691712975736,0.05032712817876367,0.12822848709397622,0.3554880580747196,-0.21599031826466747,0.08858607106066341,0.40637856139551376,0.09012577797564314,-0.056559810624202345,0.03234840465139677,0.11546756468490638,0.02442296389138543,-0.04742589798838437,-0.038259446243689044,0.20075355972127618,-0.03488688502234549,0.23095451276039347,-0.03940092517101146,-0.10629280993922535,-0.14926709820739076,0.11509421143815834,-0.07156373251684223,0.048632962857688034,0.015904090431827944,0.03488555701784324,0.1307884492193403,0.0022613758048469768,0.03087229709715189,0.04986729886043939,0.002188977293585359,0.09098591238597586,0.019023413275055745,-0.0017433154319295152,0.02111711942526695,-0.010822612290558031,0.05455614007517717,0.0011444971028056194,0.004039463674894356,-0.037582015969006594,-0.0773818623298858,-0.02001304092982198,-0.0730944595588533,-0.03606329590638557,-0.0050310585104906685,-0.016848343685604256,-0.046551714138021894,-0.03836841902814553,-0.04324804653942382,-0.01523259738804883,-0.07347305721873654,-0.05175742606525888,-0.056004587875904704,-0.02684042829474087,-0.19357696577442152,0.14129148021916094,-0.029033991980658258,0.2873446038817993,-0.16659372680420592,-0.10275413433714359,-0.11441347234657862,-0.08549276155826857,-0.002517744536013833,0.12103739232403998,0.12034134520396766,-0.06917558647938898,-0.026859191918361336,-0.21029209267906404
-0.46112716390472364,0.2484550297634024,-0.06657370383460914,-0.037263142393148097,-0.0270205832417858,0.02251036667165751,-0.03601656802089381,0.0533761482550873,-0.08314438167745253,0.026446571577736333,0.13368323186070097,0.334017661744595,-0.21489370662338747,0.05107961594331589,0.43794289694144617,0.07825424291594618,-0.059916030226021766,0.03118969740887323,0.11362063085153018,0.023678577340287887,-0.05916681215645714,-0.03324493936289041,0.1886449047504305,-0.028664901678596144,0.21391400666922866,-0.043481410943001286,-0.13272220651599853,-0.13578608491934413,0.11705395454229928,-0.06963684009241239,0.048061871407180434,0.01972618054743125,0.03383204503037218,0.11847879926058957,0.0028611893497465513,0.0323143501622184,0.0580203636508293,0.004990222997805938,0.0922710221545493,0.023489273599368476,-0.0024178941840086177,0.022445070321401306,-0.007595062962208576,0.05868602242861232,0.006571164681794861,0.0016528464677530996,-0.04171236439055945,-0.0781187188362378,-0.02212873346448488,-0.07129580875048362,-0.037617533667953645,-0.007894893575256676,-0.016142712150836985,-0.04289864630644885,-0.03717712102145504,-0.04413468053424979,-0.014624379046700497,-0.08218882114539333,-0.047892400719385775,-0.054531265356502906,-0.011926441018392242,-0.18798022992235563,0.14340992873875757,-0.03883752451259248,0.28494473719713453,-0.11250645649344426,-0.07768611049656104,-0.1340585457078688,-0.08162384055640687,-0.01547099929593243,0.11472636147615878,0.11202024625080931,-0.016662513368145893,-0.07183947412348929,-0.2180927762329461
-0.41111825390243495,0.26831450262623013,-0.05835471315360591,-0.028433069579007708,-0.02413483560756091,0.014577119496063884,-0.03619496458557281,0.06978302537809034,-0.09380728567858648,-0.0013309036497544668,0.13064703237018177,0.303398718607952,-0.19664004515629557,0.007044904494230897,0.46291686377501773,0.06382676964073275,-0.05238924320612193,0.031498882007539586,0.11901102064949909,0.017333533659183664,-0.06984518153587149,-0.03168047398451812,0.16792139635617798,-0.011634826256893382,0.19443305381696308,-0.053004678395172644,-0.1597642537382193,-0.12035262612529052,0.11665131043921118,-0.06847996912360665,0.04812820792311534,0.022655211284181687,0.03251365027568076,0.10795371716331026,0.005751281012325138,0.035270702077728866,0.06481212064318176,0.007767345535616865,0.0909512290922434,0.025016522987269196,-0.003783238286086177,0.0230434163309321,-0.0017995894074043228,0.059966156820631444,0.012396897876051916,-0.0001576233753641798,-0.0474541157640167,-0.0784240497736505,-0.022212911759025705,-0.06506819369798278,-0.03859648958671938,-0.01187637354820896,-0.014505496036386178,-0.038220000416230915,-0.03394081157705295,-0.04370586783557556,-0.014267934946503469,-0.09252902693537013,-0.04123718501838028,-0.05598633412515891,0.0023931004579479387,-0.15987001175186155,0.14952962401751524,-0.043385222704240056,0.2623592005349251,-0.045849732733038384,-0.05196139921872761,-0.15162318542327907,-0.07811131102212304,-0.026070483309873937,0.09608141441147422,0.10180078237990231,0.04706973695260003,-0.11375392273248028,-0.22277732835741643
-0.3560975721646733,0.27177110261893767,-0.016991669086895755,-0.01010154786698192,-0.022754666369045995,0.006925400445496721,-0.02465035218299605,0.07840266017549247,-0.09932765272213678,-0.024806086153096873,0.12129356054067403,0.26853552351194654,-0.17015251377949686,-0.03401281190134875,0.4745264638298008,0.04857560385125892,-0.03264244678150524,0.032809626899218736,0.12849582536717208,0.00648659410015795,-0.07552554530239852,-0.03374337739822497,0.14700315777800566,0.011761177788545907,0.1743110183469445,-0.06557033188660588,-0.17996134310760187,-0.10648130700981456,0.11183550283656885,-0.06691490183049797,0.04877641934950461,0.024138673884532058,0.03173989222292928,0.10023802854229524,0.009808817864236818,0.04013694167324633,0.06752025090320335,0.011613468875708022,0.08658146501288244,0.02312650162849006,-0.005102568559867238,0.02301813802416186,0.005933430349799207,0.05782380985118585,0.017605287502840516,-0.0008935058063184731,-0.05317678398914591,-0.07948925438026835,-0.021447276268710846,-0.05557741170907306,-0.0390066934616666,-0.01609326251842226,-0.011647667620849594,-0.03288483639908624,-0.029238238551313495,-0.04230741705443691,-0.014761356829190553,-0.10256188322325888,-0.03357714666925937,-0.058715903485170085,0.017318963195441794,-0.11228491291058351,0.15829353271836855,-0.04268360232390234,0.21674297495881978,0.026810336019613024,-0.029565118262240897,-0.16058571392525733,-0.0767384388939682,-0.03578054326928115,0.07279846880925933,0.09267351094381093,0.11060052996826591,-0.15197116226304888,-0.2212381794151906
-0.3070318736524167,0.2579580325380464,0.06169276937003543,0.014631885579072412,-0.022967429438922937,-0.003214948326821454,-0.0015434176413755551,0.08198666329173632,-0.0975650172609151,-0.03814692626158245,0.11096077524554082,0.23422380134272647,-0.1509206174920491,-0.06328283400341617,0.46720786067526177,0.03475045087804529,-0.0036821415035027116,0.03438944878251193,0.13752758218443972,-0.004759342068028749,-0.07387266511262858,-0.039012569477188785,0.13293014452025909,0.0388719959554672,0.15397824250049874,-0.07499185741515946,-0.18829669433961552,-0.09638220547328225,0.10109164705569729,-0.06139437669298747,0.049792828859127836,0.02461704374859852,0.03111859090315361,0.09577518626948378,0.013384921435959374,0.047218071062567146,0.06505322013556702,0.016951469304395284,0.0802167447090214,0.01839485471383151,-0.005621931552988069,0.022210653573092598,0.01442197551149682,0.052848256849726716,0.02127907741025914,-0.0008474567460194371,-0.05753055759799347,-0.08222984544011226,-0.021077405187051784,-0.04589499340412144,-0.038874187334088234,-0.019378912907583923,-0.007926028422374526,-0.027888520306987852,-0.023929399623398684,-0.04052010737570444,-0.016502866280479617,-0.11107769595945388,-0.026958636440829575,-0.06122437504120426,0.030781607311916925,-0.05533057047433343,0.16687845969933346,-0.03732125217802773,0.1504799840857206,0.09564501956895888,-0.011219288800248917,-0.15771207225033795,-0.07910379872877793,-0.046573828146430574,0.05571824309686191,0.08956345717123348,0.15987181924984822,-0.18879307018018837,-0.21386774531879454
-0.2665509514247127,0.23139960833907336,0.16344663987422126,0.04461815046172596,-0.026681017883209868,-0.020126506459199334,0.02727697881791935,0.08491253132717813,-0.08663504701233038,-0.038391571940087355,0.10443714929738679,0.20400505540762104,-0.14631219113804877,-0.07605292223202997,0.4403385734636349,0.024351405666692916,0.028641936242846888,0.036304215953261054,0.14253392054338843,-0.011129292410530844,-0.06604033240417462,-0.04724411657393268,0.13054249833722464,0.06798576067817652,0.1341259795470543,-0.07532765749000592,-0.18566317358051584,-0.09093365396721109,0.08564907480360362,-0.050115440995518235,0.05098830626919437,0.02498081285965903,0.0298558106133463,0.0945359584215677,0.015165456287014045,0.05509053353998494,0.05831433329827651,0.023114303364734745,0.0743200150593939,0.011834783079822553,-0.004903954100785035,0.02064418011502067,0.021960337803886842,0.04693643647839152,0.022935513625525705,-0.0006435429739828358,-0.060340680693007326,-0.08623094477609863,-0.02218626776984134,-0.03985971315962886,-0.03819411188598745,-0.021026773492872006,-0.004152016675049691,-0.023871229233657865,-0.01864985772862779,-0.03894584255936451,-0.019267773126602633,-0.11706915905502915,-0.02276594609336463,-0.06264524429799029,0.03934668350498138,-0.0018118055604574579,0.17237224689116137,-0.030234285056847554,0.07138711204798642,0.1526578656815184,0.0026047033665201336,-0.14276751598999338,-0.08493396787278323,-0.0584945846737604,0.05160981480134097,0.10027752214167007,0.18673262081715264,-0.22679462174773887,-0.20445700556944627
-0.23180942389551124,0.2029217795255499,0.25682946211762936,0.07457829066474303,-0.03488001250619077,-0.043392999963875134,0.051279420259375263,0.09215832990923889,-0.06793467475771575,-0.026982808800583236,0.1034403383291358,0.17998163751842056,-0.15144062951047732,-0.07291084026288863,0.3994814229099459,0.017648120756607377,0.05873643986258975,0.03813264686505391,0.1410284782112764,-0.008754406792496283,-0.05684886757799301,-0.05706764377402318,0.1392348907003178,0.0964019008187963,0.11627229052524535,-0.06607050040738727,-0.17736298464018466,-0.08904591399025219,0.0695166001944375,-0.03460719942151258,0.05181634628257903,0.025946980800938713,0.027868989385671616,0.0959274572015335,0.01508313925084892,0.061191810409832015,0.04973742215552435,0.028568135876581913,0.07115248597827262,0.0046194585175171055,-0.0026712152461294547,0.018590347196731694,0.02691745713768201,0.04214658071502009,0.022747702028665273,-0.0005244326443337444,-0.062162259435530706,-0.08991255327765452,-0.025186700102715787,-0.04011981338748964,-0.03712424192240521,-0.021551197436197572,-0.00117113130121263,-0.02037169118792309,-0.013524045490019343,-0.038046538957947795,-0.022289008033337165,-0.11911953754160176,-0.02157264471827694,-0.06265619092254268,0.04177484855213065,0.037399978547866475,0.1722984659030654,-0.025394208079176583,-0.009387841701936295,0.19356774466396154,0.009672742741448082,-0.11768915729421381,-0.09174737828307311,-0.0683133841357228,0.05780779700479299,0.12860191118616604,0.18890994534881927,-0.2662259814635818,-0.19515058929036302
-0.20060450141043462,0.18668904163980338,0.30687187997735443,0.09739562099386495,-0.047136127436206765,-0.06595177649969897,0.060719628471923914,0.10677199350822675,-0.04604242842168382,-0.009658239497151555,0.10652824245815196,0.16221867731997996,-0.15770804852258463,-0.057740961269804214,0.3522988231364893,0.012822027560508209,0.08138052038630522,0.03674290710743433,0.13201512351624634,0.0019124501842358033,-0.0523773522210178,-0.06571569835115587,0.15298196458873903,0.12044621542589928,0.10196812910309982,-0.05342442424131166,-0.16888725487120534,-0.08762085786590357,0.057272015982226976,-0.016706178645522818,0.05182307568569544,0.02821694318715373,0.026347970756815275,0.09867113519628279,0.014642213630825962,0.06345269957728839,0.042995617037517975,0.03184786878624657,0.07172288805054883,-0.001977034793785748,0.0012531858460342882,0.016208462726808648,0.02855867364615816,0.03983411698597017,0.021429600298617513,-0.0006540347259708923,-0.06331343461924029,-0.09163734052578623,-0.029990720841709645,-0.046830909275549434,-0.03603940684585444,-0.022221169937133745,0.00048151473693619495,-0.01675850399400619,-0.008526303990375683,-0.037950237093511086,-0.024941218900108336,-0.1166692943296038,-0.023388010179485635,-0.061737861663966775,0.04049049739432409,0.058918027450802324,0.16557349625363205,-0.024841428137550636,-0.07967905156110433,0.2159647710331093,0.0071325949696420254,-0.08676522578982604,-0.09661841444049679,-0.07070956291016722,0.06605625477206678,0.1672124765250521,0.16654186423949296,-0.30281409906287254,-0.18563606140639394
-0.17464829231255674,0.1903751049229534,0.29848760443181444,0.10955792229973632,-0.06259878687995513,-0.08129103996121967,0.051520493411597146,0.12703675513073653,-0.02574480936175183,0.007078899839421893,0.1104765691587824,0.1503322595833405,-0.1588748685255183,-0.035188220600971154,0.30549781471250104,0.00766133551044712,0.09150240196029574,0.028706931664276625,0.11783076936861203,0.015041920874336423,-0.0543575155140551,-0.07021833635985114,0.1642205005657209,0.1366583786096236,0.09400939674080389,-0.04488364065516104,-0.16187063792852124,-0.0844817374778346,0.0533201190078082,0.0014987604206385674,0.05156316546173256,0.032092881106090876,0.026853537524677118,0.10149180949265968,0.016239132833000047,0.0607721116360892,0.04109111356099737,0.032872717493532266,0.07586740684850046,-0.006652248912700998,0.006415698266379333,0.013877806086863731,0.027413515661804055,0.04055163677250284,0.019850208954887205,-0.0015840847278264514,-0.06370143454149221,-0.09095739944059228,-0.03632911880918453,-0.05783371442568859,-0.03546853552214585,-0.024190082976308827,0.000701780247057443,-0.013404170061772858,-0.0038460067024088662,-0.038565455154086214,-0.0271570845678292,-0.11131708802987161,-0.027673901507128146,-0.061164898022344205,0.03945005485180064,0.06676859143042513,0.15352590943380684,-0.02946156675882472,-0.12826023887416466,0.2197103805944698,-0.004738819215329371,-0.054600432669257404,-0.09760860577761832,-0.06040612001141166,0.07122744978869644,0.20250476749877766,0.12246890526687443,-0.33141125139330196,-0.1768046086911924
-0.15862280284365055,0.2107500870491419,0.2484051126057839,0.11004259048751591,-0.07905975616177952,-0.08850659670090555,0.02732126596584117,0.147451150182055,-0.0100337499648403,0.019211618427825428,0.1126582570312738,0.14386963779814121,-0.15134543994152572,-0.010508143869057851,0.2657885449160824,0.00131398404999572,0.08714175259399809,0.014950354984331171,0.10334242215262612,0.02387699769813656,-0.05795354521044038,-0.06835114440868983,0.16609275908913135,0.14255265462740896,0.09629355534729411,-0.043473204966535284,-0.15268254214203433,-0.08090477150134012,0.06094334403866619,0.01677815019373108,0.05221792994851848,0.03715243763110199,0.029876089576307163,0.10383725934914823,0.021694042691416837,0.053689102344869455,0.044292344429492925,0.032942840326447786,0.08249437533102189,-0.008058257096459465,0.011745431669846207,0.012654444532419928,0.025025889395830947,0.0438238807210648,0.01869863772582081,-0.003753438942973558,-0.06316112785615524,-0.08913111344819263,-0.04354812326016019,-0.07018604030901605,-0.03589796222769895,-0.02791723197882391,-0.00022845219886113988,-0.011367054673838028,-6.351592628539571e-05,-0.039763432905158214,-0.0292041959205232,-0.10573254450859271,-0.03349447050445381,-0.06232755658921332,0.04045308648505819,0.06631035404975061,0.13892795262883195,-0.03923929328633102,-0.1510525306164524,0.20788087494545826,-0.01987065788182263,-0.024229379494789427,-0.0938971026553253,-0.035557321389906915,0.07424678724136291,0.22241744189312174,0.06412999593787444,-0.3507132062766821,-0.1707969263304133
-0.15582101385190023,0.24093871338309347,0.1925991697841689,0.10027691181574,-0.09345809632441493,-0.09091219554376073,-0.004446556405018343,0.161616927250811,-0.0005738769044332237,0.025743762463566855,0.11288822297665119,0.14087986020094334,-0.1334275657802098,0.01040874464974606,0.23764862632309103,-0.005616606812513414,0.0705437858146441,0.0007752785046454269,0.09287298415757428,0.02612176424701551,-0.056976273813472145,-0.05998530780758882,0.1553318866672888,0.13722030822804387,0.10963133018348004,-0.048107375726218815,-0.13626355076024788,-0.08006222021196518,0.07965913534248736,0.026834104356395327,0.05472757820373364,0.04290425569430578,0.0345726414186629,0.10536613689503482,0.030910175766470593,0.0448182183598429,0.0507561976522648,0.03327377746656168,0.09026849042574903,-0.005365095582413826,0.016488798678056527,0.013400490354668393,0.022855949636663375,0.048362822783639126,0.018376151892264936,-0.00673350629361022,-0.06195328262436649,-0.08820405447538159,-0.05062186073961546,-0.08151215092918376,-0.03749654678282477,-0.03280291169410071,-0.0017299407871318728,-0.011520942253792354,0.001611361438947495,-0.04142702489991579,-0.031162149733359817,-0.10163530719501904,-0.03976540207004908,-0.06592729152125032,0.04326859892604096,0.06116309757291838,0.12463621558935534,-0.05068952359916867,-0.15494855067172092,0.18556061120966094,-0.02800163908912706,0.0013119544262740757,-0.08596710205732988,-0.0010887311295911806,0.07907516080217147,0.21788299866261773,0.0037792366844264236,-0.36006018768078407,-0.16870702810264615
-0.16623231875212985,0.2751560023592746,0.16051220929869447,0.08456705951032245,-0.10455982178471035,-0.09178535632914164,-0.03873917418451067,0.16433617990880367,0.0006965325567246383,0.02840522364556053,0.11342404045593851,0.1404535758454457,-0.10567319313045659,0.0225105947700317,0.21967420617927103,-0.012068200126210904,0.04551263915143827,-0.007962424077282093,0.089113371856546,0.02400203061884698,-0.04937834030950683,-0.04708472593634139,0.13558246319712164,0.12226301714975873,0.13018994541061002,-0.0562951001719324,-0.11183847601087599,-0.08333493795176206,0.10418248877554104,0.030537287406227187,0.0596138677392366,0.04892377315298857,0.03972338075706716,0.10550074615766636,0.041995555574342314,0.03787462733953462,0.05824648854992154,0.03388759950419318,0.09793525699585315,0.0007755539541113299,0.02044109404055816,0.015660917868252522,0.021346277791076118,0.05302221575156052,0.01891858543388769,-0.009447996347887594,-0.06089561008463898,-0.0893456546826844,-0.056580030919977306,-0.09005053594105768,-0.040054582713999365,-0.03756408294889746,-0.0031798680590365835,-0.014237904246848399,2.9955427349070973e-05,-0.043209684487928446,-0.03272489042314816,-0.09924030841093337,-0.04527186489390006,-0.07149935187502773,0.04873233568662838,0.05308386964859224,0.11324227660235586,-0.05780179696240051,-0.1493493681615934,0.15821110037005903,-0.021164787585778166,0.018816695146109286,-0.07580169483669202,0.03233324482102562,0.08915901115158154,0.1849177961267705,-0.04384169926719672,-0.3550491953644415,-0.17027986298508258
-0.18786237647447462,0.3053410405887046,0.15686621248695543,0.06654081193826739,-0.11247590030239463,-0.09167259975634279,-0.07323913900613155,0.15397201435162333,-0.008206171349435465,0.03145857941362873,0.11691420595828855,0.1452834089800098,-0.07273844039381416,0.023990696731141292,0.2047141964941097,-0.017516559193981096,0.017089311317424416,-0.008219798808162704,0.09267737294881628,0.021311108375996035,-0.03672593009180014,-0.031359552396919566,0.11425753439106767,0.10145274207228405,0.1527633229214067,-0.0656128861288987,-0.08420766889774772,-0.0893239194255141,0.12444813323426829,0.02657820971079039,0.06659517388677683,0.05438485982280972,0.04457400376763976,0.10379167633690067,0.05215222632313532,0.03649200666584762,0.06478355174027373,0.03381716911655197,0.10362369136858063,0.008424844671730991,0.02342091557867365,0.018460331298925103,0.020377081499934557,0.057042517605192744,0.019899208158445703,-0.011156957486684105,-0.06054932941825697,-0.09224098236719575,-0.0607224227231485,-0.09440322102008646,-0.043114174631767144,-0.041238425160375444,-0.004118917140355366,-0.019244960177997372,-0.004814229626218608,-0.04435024660417636,-0.033620136758336555,-0.09807473733780783,-0.04903583200650172,-0.077869316608802,0.05763107525028621,0.041672525368538604,0.10556730999420705,-0.05680717304625438,-0.1368807925079792,0.13011246299249135,0.001582983388575654,0.02811809833758172,-0.06571102675776169,0.05390096273315503,0.10507551139789761,0.1279819731697972,-0.06773771403593615,-0.32985702586764387,-0.17394277611578893
-0.21623001050529678,0.3214759078842748,0.16376377532196995,0.04731564522360626,-0.11664072634521538,-0.08813597203457713,-0.10311289776538723,0.1336830548729384,-0.026999939646347504,0.03965210430512872,0.12429712846517071,0.1575639758969496,-0.04400283352024287,0.017960168437984425,0.18504847044978068,-0.021251558444169705,-0.007074754124629323,-0.0009522537271816622,0.10025780745618029,0.020745019244178042,-0.02124716207998889,-0.014419988912203863,0.09629237953123482,0.07931759193255983,0.17268561310211705,-0.07468423896713172,-0.06083120377233958,-0.09626322546690702,0.1279741942022692,0.015519202923753639,0.0742658325921901,0.05862271420782339,0.04874421444017463,0.10019313401818086,0.05833430798890182,0.04299242950605653,0.06901200291637577,0.03221119988389598,0.10515308135188794,0.015646108942486303,0.025416327557331475,0.02167016203364036,0.01963900622428405,0.05972847623954891,0.020682641541653002,-0.011994970426883522,-0.06058308364766549,-0.09586449507650474,-0.0632025454402561,-0.0938245783725074,-0.04606486011264074,-0.043586930175033775,-0.004337075086993825,-0.02567696033115363,-0.012047722552478463,-0.04405783963405019,-0.03408739870841934,-0.09779242284556258,-0.051020712302515286,-0.08411196634634818,0.06687831226954866,0.02675190841423769,0.09971349216040304,-0.04785744925147528,-0.11433880160749499,0.10367489907916783,0.03603908117725485,0.03257906134152189,-0.05671334653782362,0.05816816746568987,0.12440798287768595,0.059529641933444344,-0.06477829278812725,-0.28216596367015356,-0.17733040373685294
-0.24590977051987606,0.3160233236873211,0.15870716977197108,0.028669047350160515,-0.117054299667257,-0.07792967546155338,-0.11956788117466033,0.10831604338995371,-0.052038308257317256,0.05440877151487483,0.13419803143151804,0.1755268079941632,-0.030421071428132218,0.010222241650819308,0.1590334904956502,-0.020805391095134906,-0.020027758622571,0.010041859485832028,0.10549024222232595,0.021858842641990006,-0.005234838334193914,-0.00021000319400810152,0.0831645586582207,0.060397129653804615,0.1867445932590044,-0.0820124537553909,-0.04779900333417053,-0.10320559420402903,0.10740994053392394,0.0013068148947409375,0.08105591434586867,0.06166397862863837,0.05188129034503375,0.09567864644095314,0.05862051833671433,0.05677716973085478,0.07087821750366685,0.02932046216476536,0.10180576899417382,0.021240492861896332,0.02704773865732424,0.025720000977909607,0.01828389604051217,0.06097844139521291,0.020901238213675066,-0.012520488286709833,-0.06043658461777744,-0.09926871283383586,-0.06581074538516508,-0.08843961954714685,-0.048275505105046856,-0.044801359948683755,-0.003988610321701669,-0.0324338090398863,-0.020782835727726212,-0.042095759030183366,-0.03468110506428246,-0.09821825552922014,-0.05197610649438977,-0.08969115619301068,0.07055722013580668,0.010627268013441826,0.09374745200791335,-0.03314078473597948,-0.07821503724109785,0.08123704116768293,0.07561550248488669,0.03568973757687932,-0.04850878816431364,0.046637927942554946,0.1440374212067086,-0.0019486233820265042,-0.03648018440727607,-0.21645881457642788,-0.1792356605707515
-0.2759042014187697,0.2867330903368688,0.13238192408579064,0.014219830684008561,-0.11482926650909087,-0.06029028735643882,-0.11741674717158634,0.0810904265488066,-0.0779782819288074,0.07253695603752897,0.1431616924229489,0.19610254992559406,-0.038797957469194566,0.004910605034728066,0.12959892958901365,-0.01310233421034157,-0.020182086722536074,0.020624700088530012,0.10323596511551081,0.0223448041750961,0.0087319425174196,0.006442185314502469,0.0747646394843744,0.048704740349350795,0.19498266582230817,-0.08398008248110544,-0.046490045455314655,-0.10808007680565684,0.06519034828203496,-0.011484255630011542,0.08598429644405292,0.06339954269159298,0.05373652451862987,0.09261850051733223,0.053773809279157314,0.07410702984211404,0.0714723971889274,0.026249601615160323,0.09503310312128721,0.024555988608094603,0.029132341030145836,0.030667455188781,0.01583770940360041,0.0617467319056082,0.020687791597097882,-0.013226510687247825,-0.06047743166974273,-0.1012902207401642,-0.07081856268314268,-0.07941684978742204,-0.049374357375337796,-0.045660062537289936,-0.0034956451335423078,-0.03834671660819572,-0.030241518385406785,-0.039115067080040866,-0.03566280312454309,-0.09884147872985721,-0.052645169256581026,-0.09419698712347199,0.06446047567723145,-0.004034527226065454,0.08770383706499918,-0.014918829494258934,-0.0314956522875558,0.06660902543876523,0.11263452633293075,0.03808832818436014,-0.04036179152619518,0.02645271007611738,0.16167169164158124,-0.03874481015283815,0.011347926639961314,-0.14471935361326987,-0.17987082619187608
-0.30882185317703353,0.23877011612935206,0.09145665030876948,0.005755119029628553,-0.11005315887499256,-0.03613373633347894,-0.10111029377084779,0.05519961522707528,-0.10003253265901163,0.08918555702047837,0.1474371443979266,0.21588296465600498,-0.06663546594083392,0.002513225216433601,0.09957302862425266,0.002930004354943283,-0.010792206768216128,0.028038066219829738,0.09257226837153809,0.021041802505004203,0.018219004700214647,0.003935334823951808,0.0689074621739234,0.04691762755290507,0.1987655776072711,-0.07697132265195528,-0.05370132461121596,-0.10704551320340999,0.010597118451294185,-0.019729112949292693,0.08828582863264667,0.06324132884069089,0.05438829401939438,0.09328953106120252,0.04700075286898897,0.09032111436909906,0.07205071487433734,0.02382544242888973,0.0872247703540221,0.02521784932244453,0.031899526404223444,0.035988039451282594,0.01347019458057963,0.06329899474208844,0.020534303311723567,-0.014561994861964245,-0.06193531962606173,-0.10045871665948307,-0.07869003871226718,-0.06907481794821811,-0.04937554061147764,-0.047526314419888485,-0.0033702789145397816,-0.04239647899145027,-0.039675434355798234,-0.03650094863764253,-0.036878568310549836,-0.09857815863612979,-0.053759769588040296,-0.09748120340530667,0.04898176070861515,-0.016286164349930576,0.08224886588282676,0.005554624338639291,0.013690971835474186,0.06298572872695174,0.14079915961247652,0.03683486193312835,-0.03166134202075355,0.008203205951723858,0.17416120877647423,-0.04500599561622909,0.06488318808528942,-0.08200126496309251,-0.17919197304263176
-0.34233166770324347,0.1835123373450207,0.04783255124276076,0.0024659633239902945,-0.10193755799061088,-0.006686616980034588,-0.07982126742561213,0.03509515436234956,-0.11435138045466842,0.10039652417043432,0.14527559142995577,0.22959079760914858,-0.10089178422579675,0.00020285387405694078,0.07357015581186166,0.026117127524610817,0.0025575712673206463,0.031340208884206855,0.07706597891315359,0.01718494960409933,0.021604244163631714,-0.005483530718583873,0.06037269333093109,0.05526210651145469,0.19759942633723693,-0.061513121013936356,-0.06515797082319702,-0.09741696493171725,-0.042817298494111644,-0.022560335758384786,0.08766971598032025,0.06095656136249572,0.0543663344678178,0.09809763134412508,0.04193559441049566,0.1019264390529987,0.07331980473657673,0.022187952169888225,0.08036059387051486,0.023093706819047766,0.035012710257710244,0.040975415153680195,0.01316809495432092,0.06632615536028541,0.02087993393687393,-0.016620528155655803,-0.06554266206315987,-0.09650612048954858,-0.08759549688202006,-0.05997561452546343,-0.0485229086922318,-0.0509799341948374,-0.004057697299189811,-0.044129777501835166,-0.04835392143326789,-0.03561091218894025,-0.03815388357352961,-0.096418218995874,-0.056000835542826255,-0.09973466229014366,0.030369391380714816,-0.025714109084012726,0.0778800048843995,0.0273474614140512,0.0447380730835657,0.06980543335180955,0.1571069579037973,0.027284928047726753,-0.02262783941081109,0.001124109017339725,0.17599930006780118,-0.027910100379508807,0.10742536018563903,-0.03876117765873466,-0.17665108793619125
-0.3666316970892365,0.1334468820748086,0.011684744356665666,0.004051899981443008,-0.09015612161930753,0.023688629803516603,-0.06095020170726562,0.02267481729872678,-0.11822788343780272,0.10311646466771907,0.13670984787246165,0.23171545220068934,-0.12458050618821392,-0.006559405122516071,0.058982988767309896,0.054203376987554064,0.013814722137616753,0.03187722461690157,0.06280499237585435,0.009217651457090081,0.02025765508193389,-0.018324105475522545,0.043915663233647706,0.07095320541148964,0.19143673184551746,-0.042029493118821426,-0.07781063239737418,-0.07963477091503035,-0.07927540075964068,-0.022532560940701774,0.08482550460505778,0.05692029463518755,0.05466284728006887,0.10576033912485705,0.04074991288894647,0.10694012576713852,0.07501951794392059,0.021434692406595124,0.07575003102374345,0.01839001376449989,0.03791109748895516,0.045093941918527,0.01608871856873173,0.07068668867536287,0.021731349828209234,-0.018658077682545807,-0.0709616201744743,-0.09125295617347713,-0.09473987590871864,-0.053765606577654945,-0.0472483124299555,-0.054860456562048104,-0.005521396490193592,-0.04352415629232681,-0.05516587728209263,-0.03702625726058689,-0.03949107288006207,-0.09239985456236441,-0.059104672843415945,-0.10127471330115384,0.018390991407397084,-0.031347672863377696,0.07497746726677024,0.04845018668290901,0.05769018353225108,0.08223276239876798,0.161638600414113,0.007256172737390321,-0.014752776324428396,0.007619587019428331,0.16332025270377737,0.0013753028939439416,0.12782880371670974,-0.018055760698126977,-0.17210323714286418
-0.37032930781047463,0.09926296309621452,-0.009581064909175874,0.011151890553111055,-0.07395844600734447,0.048037016005526456,-0.04927309018036452,0.01463157759059952,-0.11210251595212811,0.09544414997355721,0.12246383213984413,0.2185171534865813,-0.1292167852298134,-0.020917672601032056,0.06176749926700342,0.08378248387116527,0.019299195611219955,0.03249121368960328,0.054436682424557126,-0.001984786283252493,0.018447426895479513,-0.031612487474483975,0.01964791910213326,0.09019802171335811,0.18259787881825817,-0.022912652696312152,-0.08907317248694413,-0.05616509258991531,-0.08797695498242186,-0.02297367389767646,0.08075240719584487,0.05193174426392122,0.05626076891863652,0.11434701679138826,0.04341596688203564,0.10553998153024768,0.07605074145880808,0.022124514539636042,0.07419750097533095,0.011964642044547724,0.03995248767910731,0.04788569269994436,0.02196200288348238,0.07532423781809516,0.022851375317659905,-0.01955758069399985,-0.07716676209838257,-0.08697541892898976,-0.09819874368561615,-0.05109394134283876,-0.04618110431019454,-0.05739564415971657,-0.0071585687683348165,-0.04056400118577813,-0.05873773258154279,-0.04024676747353484,-0.04091387825875553,-0.08783751590361746,-0.062020745023753904,-0.10223574172920757,0.018775109208391427,-0.03281807445563256,0.07278908372890369,0.06661480572477863,0.05564418683350514,0.09301049954406859,0.1561978005890165,-0.01983767371314138,-0.009745861485376095,0.02252223816753951,0.1400483857468554,0.03208265762692175,0.12020067840928789,-0.017786551243363258,-0.16635380949651737
-0.34533061344633675,0.08866119826299479,-0.015387530726334031,0.023752193293337942,-0.05250053576935476,0.06263834676859603,-0.04535439138106834,0.005775277885490926,-0.09916996348744406,0.07777859583424745,0.10404576220060269,0.18936728738387776,-0.11870909304529376,-0.042350857729537394,0.0824929307592066,0.11017429366769338,0.018869687505013166,0.03485397606849461,0.05258374573342328,-0.011367681568398402,0.018386497937780355,-0.04331026011962891,-0.005793007562954422,0.11065286167038546,0.1718629668723538,-0.005683033248700897,-0.09609718320786942,-0.03070662866156726,-0.0682506823839929,-0.023925848353977264,0.07619095758271299,0.04745086440212454,0.05935350621943791,0.12183607969394761,0.04791046677773392,0.10053053475665197,0.07561014997011639,0.024854671485768365,0.0759835702364503,0.005564218914899888,0.040731435668526994,0.04896186888832654,0.029302204350320937,0.07861625550122264,0.024268314459876095,-0.018811927536355494,-0.08228181853291719,-0.08440815443453115,-0.09791544531812077,-0.05190618060293424,-0.04586809505584133,-0.057527895851234495,-0.00844769322290348,-0.03540124361399005,-0.058176633957843366,-0.043755697170030194,-0.04238306351354154,-0.0848236916660324,-0.06412336057419554,-0.10254404391045585,0.029070926441652212,-0.031101071393077162,0.06987377089380609,0.08117883427529826,0.04457144212395592,0.09565960396878836,0.1423001713080701,-0.0465947241037058,-0.008323334092030676,0.03700741306530475,0.11736375774127339,0.05331047858391791,0.0831649059863237,-0.032909618591079604,-0.16204797576580346
-0.29223866233418105,0.10151593379778645,-0.012412040843803429,0.040999077351567104,-0.02727350846975518,0.06950142718195473,-0.04428387306395398,-0.007527835699264296,-0.08243273174027799,0.053353488176031194,0.08388250150304394,0.14782852548288605,-0.1004458801599824,-0.06719834186579443,0.11541022845333704,0.128760657698748,0.014510876957718133,0.0385593080739951,0.05538903558724573,-0.013652157390152797,0.018378838298789058,-0.05152908117442556,-0.02330537978084979,0.13079511650135844,0.15674895232931507,0.010358999394611046,-0.096651122730816,-0.007726438186508644,-0.027129001919543705,-0.023412337494957303,0.07191323923111403,0.04522606252468686,0.06318092762174488,0.12673411917392263,0.0516894713716225,0.09547157021914687,0.07428836831522001,0.029505287146663783,0.08085503996604382,0.001196384641026782,0.04038756921019637,0.04831038150670308,0.036207435690147394,0.07957194354025277,0.02621636284646145,-0.0167633692586754,-0.0841561289957004,-0.08294354781994055,-0.09496500131646497,-0.055693858502178825,-0.04650571870193321,-0.055211017507333246,-0.009449946380361673,-0.028701766811810858,-0.05340793148918427,-0.04595829384618355,-0.04378838440013233,-0.08529337525878677,-0.0654113684797547,-0.10207750045053021,0.04305041261761755,-0.027344242150691755,0.06615637366097693,0.09214174310938872,0.03315739833203435,0.08770941273943456,0.12014575925629717,-0.06592319940092495,-0.010249901877354362,0.04414927794783874,0.1065123986725629,0.05762149914538939,0.024179756522165474,-0.05811112592687845,-0.16331174209463573
-0.22422953324141504,0.1280502962794915,-0.008567673748784421,0.060428962117323015,-0.0024855508860437414,0.0742565738169837,-0.037616005647730266,-0.025915423274512683,-0.06521939994574832,0.026901774458205407,0.06430461783805069,0.09945694715439946,-0.07918037581525816,-0.09099012210218727,0.1509773874547562,0.13610773804634746,0.008650570930110735,0.04278677655242569,0.06062832141766805,-0.00640516576858341,0.016601366276386753,-0.05371735603019301,-0.026616410790096134,0.14810715972859612,0.13481790700643426,0.024556174958492827,-0.0897882539951016,0.010057168694886487,0.02354439496154692,-0.020350178054016177,0.0685413840860527,0.04620862738703346,0.06658026731018718,0.12839691773082462,0.05339681078014802,0.09272981081312837,0.07351521994750965,0.035312206129681556,0.08781876155603252,-0.00011535161156228657,0.039588256649771725,0.04646623813530404,0.04150382507279404,0.0785265922884415,0.0286760629023034,-0.014271961410803877,-0.08229381365801704,-0.08204908623159507,-0.0901800069810784,-0.06188835927507266,-0.047954846757496644,-0.0513547581639011,-0.010667522149784892,-0.02152840107450138,-0.045462663096994455,-0.04642983690673125,-0.044757811201812214,-0.08988991627411935,-0.06592375897409772,-0.10029855466593354,0.055577225784109174,-0.022445890440398464,0.06230569697729893,0.09846262535958072,0.030906629334843005,0.07127996283817573,0.09074024791935553,-0.07354773581934049,-0.014412189845063483,0.042683483715231785,0.11220778408137477,0.044348091294990954,-0.04069441701337251,-0.0899106852431536,-0.17240071467475598
-0.16039637587827754,0.15838256325599975,-0.007383060243548845,0.07772690458815618,0.0168260467016621,0.08334718409316444,-0.015827256935564082,-0.045141492569251485,-0.05285917823352704,0.003244039669045684,0.046418427777363214,0.04956270728450107,-0.05783388673048967,-0.1102540119509956,0.17998348748998372,0.13091765109025677,0.0022270073983349237,0.04708346312721079,0.06566589746420526,0.009737514361446542,0.012773329428169,-0.049429484645745925,-0.015402459134964186,0.15893994783200427,0.10638846681627367,0.0339191976139942,-0.07610489653396962,0.023087216294793933,0.06999003236981405,-0.013624981509994138,0.06604549070886057,0.050060622582663306,0.06857435297434655,0.12663266506663395,0.05284234602141946,0.09340041817052158,0.07417522587486336,0.041670515485687454,0.09505473221918848,0.0012345592709055442,0.039336239772501,0.044203833992016994,0.04523831646378873,0.07651384190081834,0.031234599215029135,-0.01247075656242537,-0.07817962893126364,-0.08140797575417931,-0.08387279654748211,-0.06983271342374292,-0.04983310733050503,-0.047132840992308134,-0.012641133879134792,-0.015151317155225441,-0.03642013609845743,-0.04570518969675491,-0.044698382303887674,-0.09762536001496847,-0.06545831300241575,-0.09572440586807826,0.0638864319585567,-0.017061338815110183,0.057359800063409794,0.09868672500913167,0.0424736674269558,0.051275076971041944,0.05861838501391742,-0.06860297275831939,-0.018931313303328312,0.03590838178326483,0.13131218539000666,0.018286134120436226,-0.09240806938469143,-0.12526687377503506,-0.18736803608227784
-0.113705305081577,0.19056077117665338,-0.007836607594749023,0.09051085863871128,0.027204484095278758,0.0995672676045366,0.02440728222126154,-0.05813564060950693,-0.05067546966900027,-0.012655169302413671,0.030790914401937264,0.0031652085953901565,-0.03787670602308468,-0.1227355530457262,0.19670825256474367,0.11584605607503862,-0.005581642252557528,0.05089001697583884,0.06804653224316293,0.0298727129858134,0.006625709513324307,-0.043054063924996444,0.005128867127452863,0.15955106590162604,0.07551544896725992,0.03658161956034911,-0.05857662244375428,0.03210664184570122,0.10225436890345918,-0.001452567210694533,0.06423563220726358,0.05539338545885819,0.06853300188879208,0.12177348845277536,0.05041416035933788,0.09752892015889969,0.07650463216155512,0.04851331943309678,0.10086644083282714,0.004084665297803047,0.040382938911121546,0.04203212548886337,0.04801902802410407,0.07455211908805992,0.03327805215369639,-0.012252690892829377,-0.07367264607591383,-0.08055027816669794,-0.07684611889506371,-0.07857095149147923,-0.0516677570990845,-0.04353125458478266,-0.01557089941959855,-0.010869410622111886,-0.028343474781044736,-0.04432261048765651,-0.0431802042467013,-0.10652815236684582,-0.06371739783654398,-0.08577547106797892,0.06821015349218196,-0.01023178187570084,0.04939132335334162,0.09149497581235388,0.0635523971382943,0.033507074282084326,0.03035983293495248,-0.05348866482439196,-0.021918831039089537,0.028215320629702445,0.15642507414241213,-0.011880974802298216,-0.11571573632565063,-0.15838487163157258,-0.20360916618588606
-0.08498913342495112,0.2250742226319873,-0.00889479526449255,0.0980756140390247,0.02871913965476791,0.1193523035656553,0.07337197521992267,-0.06001718910420484,-0.06105651143094237,-0.01801532188996352,0.017642415067997963,-0.03493654195653084,-0.019827691177223217,-0.12817005404640563,0.20059685934111948,0.09736570244410725,-0.014684182935690404,0.053546668138366504,0.06682686384616021,0.046656844215993476,-0.001662034488230768,-0.040653310117287234,0.02611514335157361,0.14791518767262157,0.048506574410999925,0.033297688763050726,-0.042100239731836464,0.03574141201361747,0.11679742141916838,0.015831775718306962,0.06326180470224196,0.06048301523518862,0.06624056769806508,0.11490101793954077,0.04691927036551313,0.10416566635468005,0.08036400308200164,0.05597398404214904,0.10460461635345675,0.007321031831935554,0.04255124317074388,0.040226759200227225,0.050222168286107705,0.07332517258950766,0.03422519925628742,-0.013519547477331278,-0.07010477466821469,-0.07940295765688518,-0.07063586100963251,-0.08707307912138529,-0.053153769896766845,-0.04186300273214576,-0.019128405150682037,-0.009429634432033207,-0.022224298069870446,-0.0427989493951465,-0.040030682472249,-0.11447221642740868,-0.06077672665039588,-0.0669578646447713,0.07112520218385598,0.0006632999144813301,0.03848949106826649,0.07603000081726963,0.08211417413894773,0.02245836075266372,0.010926879291112968,-0.033047173028159516,-0.022059242904826637,0.02366510686142198,0.1796757780507855,-0.03641633729684379,-0.10854487325488521,-0.18143987165411732,-0.2157334677379197
-0.06767059433994571,0.2564596843966874,-0.010018128177020857,0.09591687953676414,0.02454361720559184,0.13487205746419217,0.11550626412225362,-0.049647107193480755,-0.08227335960038928,-0.014667929751960795,0.006718385306664576,-0.060269390675198986,-0.003749267288116087,-0.12849832008370898,0.19386332612528379,0.08222613626445352,-0.02271109343623362,0.05421324095170865,0.062313024625350155,0.05562923558525268,-0.010665575069822464,-0.045683912892444556,0.038153131062159895,0.12611278196589648,0.030286789703480643,0.02554259908832046,-0.030926998291589514,0.03249178693795973,0.11495731258245767,0.034628611716716606,0.0632796914345507,0.06448514656596949,0.062190307104823095,0.10728402226178113,0.04310343802412098,0.11157834653604637,0.08498755625673182,0.0638559088816889,0.10625820179923617,0.010304630637274825,0.045275673868423016,0.039080571130885255,0.052063138106129614,0.07317579127835339,0.03375286868146732,-0.015015337485384889,-0.06804966458201174,-0.07801548302892912,-0.06643125566097274,-0.09457319765522279,-0.05422566555655581,-0.043230077484719465,-0.022706886968249074,-0.010758434068668221,-0.017897625625490493,-0.0418035674349127,-0.035324426262103,-0.11990949227322406,-0.05754457609805186,-0.03555909267548324,0.07547821087641271,0.017987448034537,0.027869906696902036,0.053905854175406276,0.08581972465366172,0.019018902155703565,0.0032629794950377877,-0.013643914550694913,-0.019237472333451466,0.024641542912213543,0.19454256179883445,-0.04945134714677368,-0.08345264644496347,-0.18921025695218835,-0.21840204989728176
-0.056601761445386534,0.2734573556622333,-0.00934026266818988,0.07886228235566145,0.018303719018643028,0.13497659075998802,0.14018102282734546,-0.029157027137243996,-0.10884154427976978,-0.0057648314838854575,-0.0005366024507844624,-0.07041910712859945,0.012174688567785585,-0.12576069107495041,0.1772292059178454,0.07421901359077043,-0.027259526379425525,0.052224833417996885,0.05605452493985119,0.05595148377414538,-0.019147974316708782,-0.058584730116888695,0.03590809770031533,0.10005845664394997,0.023199316302773054,0.014035513389942467,-0.027183133876792887,0.023338040015352557,0.10203721081131123,0.05061008808250633,0.06456528912789705,0.06783051633321979,0.057223852762531835,0.10034209894296198,0.039927364125302844,0.11710556683829676,0.08925307163717078,0.07128966012375115,0.1060162947282901,0.012601278108616554,0.048541091283284654,0.038762787536269605,0.053711511546980506,0.07442247363258181,0.03192848043840413,-0.015034103480860303,-0.06720762468772797,-0.07554438110810097,-0.06468374172055748,-0.10038585913008713,-0.054937185841749725,-0.04725000468000344,-0.02582750648936269,-0.014435743066297968,-0.014766789802647201,-0.041879777151557496,-0.029504037479662654,-0.12228501007004158,-0.05528600288329458,0.011327274906742069,0.08310123391089042,0.042886980302443756,0.02214863517243909,0.029632513607843025,0.07027751824775963,0.02058625648895307,0.008731776462910623,-0.0014592365004455488,-0.015079439885018642,0.02912528005057824,0.19725568485037714,-0.05055919701869693,-0.05522993154990036,-0.1796277835725327,-0.20917362408222792
-0.04996127107240095,0.2665229287139972,-0.00588061976313492,0.04947931460661348,0.01246860188405885,0.1104971973073382,0.14243567364709475,-0.003056065352272652,-0.1334959979814963,0.006610461421299452,-0.0012550038702632826,-0.06553997359691288,0.031181184696103204,-0.1212524033855249,0.15274461011707063,0.07347813612389442,-0.027619388701049963,0.04814167100162181,0.051817227389449494,0.04776768838607082,-0.026114179222640255,-0.0772942108023264,0.020148060767164466,0.07581277659918062,0.028058176030558157,-0.0012820122966744618,-0.030761972653435055,0.011526963717900185,0.08455375906368268,0.06150051148162805,0.06747302815466527,0.07090391605903779,0.05170970684318055,0.0961192559423445,0.03909094164230331,0.11737122061223071,0.09178321779478948,0.07671445581199399,0.10440604426531208,0.013539158645721416,0.0523697369370455,0.03906847339958586,0.054811538340161725,0.07703813078323263,0.029158079085065514,-0.012637825764553745,-0.0671005381498935,-0.0710489407658566,-0.0652589773569977,-0.10341252501616692,-0.05538983962539332,-0.05235687007544361,-0.028179738160635237,-0.019974761487796755,-0.012516521819055437,-0.04320967813090748,-0.023187587236967178,-0.1218247363696209,-0.05409392240834296,0.0746926019954855,0.09370868389513531,0.07435411966086014,0.02447527581896214,0.008029086585905398,0.03938150381524519,0.023797915615006437,0.025235507492700426,0.0002351141060378259,-0.011877240301617298,0.03183091646526459,0.1872086031041823,-0.042069378670699265,-0.03487268632434298,-0.15272467374107113,-0.19137269822511382
-0.046003462840756404,0.2356536688032841,-0.0006603854291756805,0.01670027708954408,0.008679339430470279,0.06582740060146086,0.12345755523961865,0.023777284164128387,-0.1496447766583695,0.0193450478958897,0.0056294601168964675,-0.04773776299801602,0.05220456844935972,-0.11569514304299461,0.12508853757985516,0.07697539280726051,-0.023353694908021028,0.0427002997286946,0.05337498459185508,0.0324997984758747,-0.029818549824003004,-0.09707867020650918,-0.0030232880898278802,0.05718012294933006,0.043422753799619906,-0.019994247117427366,-0.038566853602655216,0.0008052448855634387,0.06556304070023167,0.06847678635120347,0.0714568285210323,0.07306706061073831,0.04587402679001318,0.0963387539143371,0.041736200665640544,0.11015786089267432,0.09103567978363092,0.0784323119019622,0.10184518248887953,0.01267321499461238,0.05615580643485729,0.03943752468116324,0.05449406188350203,0.07998746843940574,0.026115987166150156,-0.008408610067612426,-0.0674899323063096,-0.0649320016491699,-0.0671693718307726,-0.10249300888913074,-0.05559021222316399,-0.05691742930625346,-0.029619540118116017,-0.02674791515623859,-0.011349518552801252,-0.045442038974182974,-0.016971003528919698,-0.11906877385114897,-0.05254188812760155,0.152529553405729,0.10377574736285189,0.1080302168716688,0.03452056855182617,-0.007524123036901198,0.0003247662915111249,0.026379993708900762,0.04742395665090765,-0.0074937766684541884,-0.010676931007789658,0.02923221359898387,0.16572342857574196,-0.028520544729084718,-0.033377250827174354,-0.11374475760190397,-0.1723213173358893
-0.042451174229201194,0.19099092847587862,0.005560145342958123,-0.012368587109932438,0.0074695419275265795,0.01714798315059729,0.09225240129796397,0.046104542213830646,-0.1524242510030871,0.029144287701549365,0.01920904287588482,-0.02322469722293541,0.06911307657619692,-0.10837826244495763,0.09477575126358972,0.08042763554126575,-0.014118416204299267,0.03479240803757022,0.060856073261065236,0.013690808120371933,-0.0289051638257376,-0.11179893624507592,-0.022952418489746718,0.0456247554746414,0.06501191807720341,-0.039496005015959845,-0.045897152676275754,-0.006138237869033114,0.04494285012099586,0.0742811136423881,0.07515431005446416,0.07340111843058739,0.04075280772631373,0.10095603717190083,0.04716003142145786,0.09648652565776239,0.08646938830521378,0.07577972052960036,0.09827926082461136,0.010435651730732354,0.05931391303905498,0.039458402658838376,0.052207588038158725,0.08172381455827848,0.023605313447203624,-0.0040779947396310245,-0.06807063532088217,-0.058317910744201285,-0.0690585027029562,-0.09748264829473768,-0.05534666415143019,-0.059764921186504026,-0.030292937501167738,-0.034044232655004614,-0.011745703130401408,-0.04768243606759526,-0.011542724486646394,-0.11474145944997341,-0.04937341785208016,0.23964648327329352,0.10843043687788623,0.13723868821693175,0.0487494919585858,-0.01575880732337276,-0.039417476952339436,0.026843795682907512,0.06929408116717456,-0.02017109538668771,-0.011220282456717856,0.02188325414362635,0.13560146726615996,-0.01648235834884293,-0.0574520207200106,-0.07265600957368262,-0.15953907329330735
-0.039092566554816854,0.14577845603462003,0.014427968263004076,-0.035629441282358676,0.00806368052211881,-0.02195801666039099,0.05987398831012558,0.056614798481063544,-0.13896973963409326,0.035413822263706096,0.03768326126554605,-0.000722569496801051,0.0787142963064913,-0.09803963464936499,0.06021902768322529,0.08137393022965134,-0.001928590693932919,0.022889876504798456,0.07208153305336917,-0.004780631463613849,-0.02343961977434983,-0.11678445752338851,-0.028291255895592005,0.04058107755914564,0.08813972887936528,-0.055401049688377335,-0.0500438962778294,-0.008207570015952736,0.022633214360179177,0.07867874258839724,0.07737777606577667,0.07147056248817829,0.03803261197736185,0.10814295955527475,0.05364538463736457,0.08025983090581557,0.079359604202076,0.06978542943233146,0.09352570858207854,0.007714378410610179,0.06184885931475381,0.03931545193878405,0.04847076528772121,0.08133444292280512,0.022222399469977283,-0.0018432781793903952,-0.06896815332029506,-0.05177513564834013,-0.07050965118517313,-0.08970254089434263,-0.05452860907505935,-0.060492447146553434,-0.030396547851489375,-0.04099889187590444,-0.013917532284476036,-0.04889034978810408,-0.0076185276512127365,-0.10973508633542628,-0.04472920767869479,0.32907081035314567,0.1054952989702983,0.15524510069756148,0.06268673528688595,-0.018742483023896805,-0.07432299394570918,0.025631294402510107,0.08493922859426556,-0.031890127993994044,-0.01337142431320909,0.01272009221776782,0.10267291444863347,-0.009741825916118718,-0.10492539646564092,-0.0389696598277986,-0.15789184344705826
-0.03896514152225472,0.10911789314777331,0.03021388415989157,-0.05431898212742259,0.009320038571357547,-0.04547538152346697,0.034187917602201745,0.04977463173476537,-0.1096081344949909,0.039349473729209994,0.058472190563082005,0.014113078801408774,0.08064962353146088,-0.08408542533410818,0.02567473477919724,0.08028055753372354,0.009688890465937627,0.008432778462887702,0.08523080358263802,-0.02014567215531382,-0.014636438628830462,-0.11066359307403162,-0.014407288012734498,0.04084140434848971,0.10835156844932681,-0.06504689542363518,-0.05076162518882177,-0.005523018327072138,-0.0016387883126675051,0.07834345411393462,0.07706805851992493,0.0676430275100981,0.038926921817587945,0.11512133804602498,0.059905226174232995,0.06615887733390735,0.0723643054271561,0.062411515915058446,0.08711346831515099,0.005302742851369779,0.06400945958038684,0.039634652510686985,0.04503328129613926,0.07888488696576434,0.022171007059475056,-0.003543430183974572,-0.07124486043495025,-0.04566511661259792,-0.07230216417227323,-0.08153020529798072,-0.053345750308670975,-0.05978202188373304,-0.029978962009811705,-0.046537725548290165,-0.017750986144834224,-0.04828664971769081,-0.005643834288598021,-0.10464017837400216,-0.039845640878618666,0.41405385389855665,0.0963305927540119,0.15777656419058583,0.07258470301091469,-0.02102687093500244,-0.10320215696451107,0.02606171852895489,0.08891380122463449,-0.03729035163470862,-0.017181229244758955,0.004443597781170094,0.07467540273415163,-0.008542032157981105,-0.16959612654624906,-0.01894490916340541,-0.16674996678386592
-0.046393999850204204,0.08244505678630198,0.05573904072286162,-0.07073617096745233,0.009733376314610465,-0.05260124252714815,0.020576509309976454,0.029638839640508285,-0.06826723006479662,0.04155304952374378,0.07898666942453408,0.02088197657119728,0.0719492274562068,-0.06616484981639059,-0.0005558995280767753,0.0793334775115726,0.018389817630678762,-0.004734955203266389,0.09727266263925882,-0.030274396568051087,-0.004755997969453141,-0.09527265262174073,0.013520439341814794,0.04588865049631552,0.1196296761789668,-0.06921266935655845,-0.04882380110039025,0.00087207331318917,-0.02770210513959037,0.07174349220066156,0.07350238276713972,0.06352314909386014,0.04338701515620591,0.11945781428645363,0.06544536815262436,0.057733432011254915,0.06851485006300906,0.05546512952296645,0.07830596251688393,0.004148164049569636,0.06583959911362292,0.04109859356307155,0.04391813817516077,0.07503510459294416,0.023372874797604637,-0.009363549121786274,-0.07576688943849168,-0.04084878226490213,-0.07507496237496888,-0.07544678068824634,-0.05228207518330369,-0.05912555145498269,-0.029180780007598744,-0.04987421340043913,-0.023224794771135898,-0.04551038423296794,-0.0056206330717996356,-0.09965996511029188,-0.03643738498762597,0.4894621249054877,0.08426785727786612,0.14510755323022806,0.07560098762763146,-0.02611311242991632,-0.1281182144358849,0.03087472718557771,0.07790147096915273,-0.034043373850680236,-0.021906229847923897,-0.0021443407047789798,0.056591564313055454,-0.012998066818154519,-0.24210505591477657,-0.01374611771375156,-0.18020020348785987
-0.06599475533440435,0.06060732825631476,0.08746513010520518,-0.08715022805028938,0.0074271634445484125,-0.048426874764255445,0.021255406584784753,0.009329810249202097,-0.021244422824695075,0.042208633663846196,0.0966095360964192,0.023092951991666277,0.050712702955707734,-0.04608602876605339,-0.01260760020240359,0.08095154284111816,0.023017542920592327,-0.014202712126605954,0.10327219047707792,-0.03400738183925878,0.003684163574054322,-0.07483820940036728,0.044835252050587804,0.05529107881082074,0.11776554839854747,-0.06935221044130935,-0.04606159398989618,0.009405131052556914,-0.05158732250951503,0.06112574111118929,0.06743258645927053,0.06127706316748338,0.05017279717182699,0.12044952284104948,0.07003859919143518,0.056124387526424124,0.06986434767125671,0.05038931863121976,0.06728193176647979,0.0051878034564937225,0.06696232306641137,0.043866526851492726,0.04580629118212798,0.07087041937588034,0.02552243750558092,-0.017801653007537388,-0.08206168273319597,-0.038235398600607706,-0.07798206156338919,-0.0727372511739628,-0.05194070942410045,-0.0595131933787492,-0.02819866160607326,-0.050870857141121606,-0.030286236593991406,-0.04081273008718478,-0.007159688593993935,-0.09536858875396201,-0.03600277359087742,0.5526411094185524,0.07433938378977534,0.12203698384802386,0.07086075302658712,-0.034713924904223425,-0.1503403518453571,0.03888765418425122,0.051892181648621416,-0.02399939938828599,-0.026334517563327997,-0.007873921064532219,0.04927018385789805,-0.021165182999335008,-0.3071121397313925,-0.01945541802305767,-0.19151001094776982
-0.09958422979444781,0.038121262955629454,0.11728686315104131,-0.1068458983868083,0.001519263410948879,-0.039096818438967174,0.0329497066483887,0.0019959154052829886,0.024501200862067973,0.04138877510813005,0.10913054155407448,0.024005594969282895,0.021048782619777606,-0.02978605983658389,-0.01221684126142164,0.08575192569276713,0.02367801552644827,-0.019806301712726793,0.09946451420817826,-0.03221635190039085,0.0094498170153966,-0.0548366774046376,0.07032451351197366,0.0678188094584602,0.10473809893966224,-0.0662293612241418,-0.044794305079087104,0.01919981122122094,-0.06761240092756737,0.05028992701153012,0.060709882426692285,0.0621651513114021,0.057297004653863115,0.11876569637532464,0.07321840394260049,0.06014887958869242,0.07598222842189228,0.048303700526877935,0.05552324955391652,0.008475455321748648,0.06676873555602336,0.04713463916134375,0.049715379615837274,0.06787480123045009,0.028152132092230442,-0.027378060898724105,-0.08897366152422817,-0.038138770841659064,-0.07904241106269014,-0.07298480578672292,-0.05287194652620139,-0.06068080291272782,-0.027024428320375715,-0.04976479545322193,-0.03847087059965576,-0.03506925405803224,-0.009678949083591487,-0.09274133134640355,-0.03895730219487681,0.6036937120827103,0.07084247366317475,0.09632714904080908,0.06003075331730823,-0.04605161962065585,-0.16963536711452004,0.04630825722729681,0.014568977083845136,-0.010591532766302869,-0.029571204420734187,-0.013409668385502616,0.05115661604248867,-0.02834608581304021,-0.34942176686098864,-0.03221311545103289,-0.19607700708172185
-0.13974244400183733,0.015931628321824265,0.13714993367188077,-0.13075128644940204,-0.007086531020587539,-0.023676690676520895,0.04820744733803273,0.013707986589716392,0.064885217446643,0.037413820775791584,0.11662443045241894,0.02335124517304954,-0.008384367054532604,-0.023610504089008,-0.008526417742727777,0.09103880201357162,0.02179879344517971,-0.022445397047916593,0.08554569021402214,-0.026883661141765103,0.01278559085891573,-0.04049190750494558,0.08680921163059063,0.08129964601675821,0.08488201311801946,-0.06126604828509541,-0.04672860443311261,0.030318637751360455,-0.07334839680341165,0.04246626064524206,0.05478970466237143,0.06620559103447832,0.06263626282161838,0.11515888989671275,0.07453582690555427,0.0676763374927477,0.08387231724925759,0.04951859531252745,0.04484647977998557,0.01310228441401895,0.06509676505682838,0.04968246887983574,0.054135466834858925,0.06721517674129374,0.03085316737353272,-0.037542070857584736,-0.09576806668779249,-0.040533419428540746,-0.0769868280005524,-0.07489025611935363,-0.05525855681626074,-0.062142926366586165,-0.02566157614750672,-0.047255101137279876,-0.04679672436067403,-0.029339196801517864,-0.012586178119179392,-0.09250275295570148,-0.044775491922124516,0.644692794934825,0.073010928903807,0.07633166187571783,0.045523169939302055,-0.05851827997566661,-0.18688165828583764,0.04938276567333322,-0.027125345226413633,0.003327368609741921,-0.030955048313279,-0.01868152743200069,0.05876795414528635,-0.031163155506053863,-0.36350079364134646,-0.051065599369994885,-0.19139135266370977
-0.17281627560413992,0.0028530332281579973,0.14209146869581957,-0.15173132873799305,-0.016252429238807875,0.00243858112634332,0.06003130457975536,0.04217562958644616,0.10079217031827314,0.027304061463583773,0.12037317108391599,0.019459773987980378,-0.027931091686472898,-0.028777708397538904,-0.010062963430101268,0.09251876321296859,0.017826182668570778,-0.024114172987036997,0.06458583380642724,-0.019738241543142743,0.014849790103652838,-0.03460726560394578,0.09642788427078408,0.09144955659894782,0.06023901486861294,-0.055883206844659084,-0.052781146632952525,0.04194927254481873,-0.06887772423591654,0.039349048618365856,0.05056958628895558,0.07266964642373341,0.06482198522595517,0.11038617635963344,0.07428963695216118,0.07636955545779611,0.09020902236017636,0.05328705733731953,0.03687475594640677,0.017829636074149113,0.06247664532187869,0.05079276060069593,0.05782500771685306,0.06888766396208179,0.033295839064493515,-0.04792032435696973,-0.10211559185675191,-0.04553945136452267,-0.07250099499903336,-0.0770419726012999,-0.058732307290697394,-0.06402217446781411,-0.024409278870523243,-0.044834507024794856,-0.053470249246358126,-0.024532769244498154,-0.015389620243063173,-0.09500493918513364,-0.05295001866007695,0.6780713786505855,0.07657566321253984,0.06726639829166792,0.02956850463969196,-0.0695041957639565,-0.20303063202736876,0.04608679780370606,-0.06520597665058014,0.014468698806266,-0.03042039153267123,-0.024218147606897278,0.06805335711207572,-0.027659897560211255,-0.3546132906321082,-0.07378352009956846,-0.17796189381101235
-0.1898978044979256,0.008541904723968874,0.13416987566662386,-0.1582961209352935,-0.023104039914275676,0.03877899776828719,0.06386289924983346,0.08061127458234885,0.13492417229959353,0.009895001774772594,0.1191321021652259,0.01218668654116295,-0.03131860016830751,-0.04017911844559163,-0.018929265862761224,0.08703444228183876,0.011623511845580248,-0.026702386293894875,0.041920329690871894,-0.012125852030337558,0.017610615820802256,-0.0358268221314727,0.10251176345787782,0.09160824944016677,0.03241545177732219,-0.05037669192652561,-0.06210573682008924,0.05178634756374356,-0.05529202791365362,0.040628682177227926,0.04858635918207532,0.08025116006613231,0.06383253462758454,0.10507903789612483,0.07331624418020766,0.08357619883700806,0.0930905959237901,0.058389023722616895,0.03288836708446086,0.02150090169219232,0.05965772483368159,0.05043407178873094,0.05993734393703465,0.07178786520985558,0.03517051974723728,-0.05773353335190737,-0.1077734930804714,-0.05294808426181313,-0.06764131803790231,-0.0781876943217345,-0.06253604974392266,-0.06635529997505951,-0.023704318609612585,-0.04410566773502472,-0.05620171720840908,-0.021376470023683758,-0.01776163932932398,-0.09991495720625851,-0.06290046509722369,0.7050900283554461,0.0789391350011468,0.06740445367142145,0.014383832332255153,-0.07635762774265242,-0.21546483212563938,0.037102945361252804,-0.09388128771873339,0.020044768028293247,-0.02876360579936582,-0.030783402181352726,0.07652102469596833,-0.015295981330375352,-0.33391959496754353,-0.09521977029756473,-0.160096039533956
-0.19082386898702047,0.03439548749275623,0.12275674814717341,-0.14282912911514367,-0.02433919597549905,0.08025678087668553,0.055153206274676125,0.12271269828980103,0.16892429698522315,-0.012205053739909266,0.10799496273278025,0.0017546504376340089,-0.01996180144373938,-0.049933207734007556,-0.03195096331565028,0.07280868901360182,0.005367538880021394,-0.030742915881686594,0.02352405207058006,-0.004511169112183078,0.02268995964874798,-0.0394114331711074,0.10760274432814854,0.07720483283707436,0.004751938679741163,-0.04462125212852519,-0.07130408081098505,0.05770785886470886,-0.036802680733521,0.04465055589423972,0.04864743311125397,0.08729367664726861,0.060930603127784755,0.09899664326844915,0.0719869207441004,0.08734105090877953,0.09193719359352459,0.06395148910707027,0.033451145276515826,0.023482677590845658,0.05744578558935465,0.04893750564910704,0.060243391405208735,0.07441046936742857,0.03630495317145399,-0.06604564914998005,-0.1126142291920638,-0.06145151489323886,-0.06457339293851508,-0.07778485689111622,-0.06577658313436283,-0.06849668338562998,-0.023834797486885606,-0.0457286680318319,-0.05370456049842523,-0.020051371718126765,-0.01955955654123545,-0.10579717825500906,-0.07323198679733328,0.7257229731133448,0.07956431470346081,0.07033579481666741,0.001410039812523689,-0.07706196232698559,-0.21876799906795696,0.024809375187117677,-0.11084737722575627,0.021096876514679508,-0.026540062740687487,-0.03764787361039551,0.08180574930782447,0.0058934629067878275,-0.3135716559908158,-0.11180373560100132,-0.1437887415019629
-0.1789100694473163,0.07411328313370402,0.11711439417679892,-0.1056580933324972,-0.017892950078660763,0.12211394406286458,0.029395414342123893,0.16211913289404256,0.2039124726973952,-0.03326517910986643,0.08133127088261433,-0.011938239355650526,0.00127323535546231,-0.05217564219218551,-0.04300812793327602,0.04984764371999739,0.0015701878018737347,-0.03636706718851579,0.013989613902527287,0.0032475733242874893,0.030325616079380446,-0.040101815173386623,0.11468765233098033,0.04983630685445217,-0.017576409741530907,-0.037959584619333464,-0.07679327342109732,0.05863269716846209,-0.019518960227074778,0.04989119216098181,0.050295447375400704,0.09233458318865584,0.05833885510993553,0.09186857140438309,0.07002258990127963,0.08755676696984871,0.08768219383699616,0.06986747455052511,0.03829157944747197,0.023911175429087606,0.056624551954211455,0.04681007960383898,0.05917254928290905,0.0756550663912352,0.036700674196835203,-0.07178509027460027,-0.11624025522211454,-0.06891600163464398,-0.06492168832484674,-0.07624166980226146,-0.06751091737832027,-0.06953808843414058,-0.024823082466508273,-0.04921794068083829,-0.04651090012169437,-0.019619633529353087,-0.020801960605060926,-0.11077746591457299,-0.08189272139608261,0.7398062536905597,0.07807347741997617,0.0711656735182391,-0.008996863012095402,-0.07054171640053597,-0.2099949945146266,0.012619069491944468,-0.11588263760345241,0.022079752752548476,-0.023989840152435993,-0.043419060594133585,0.08006665620307063,0.030400226212800696,-0.3019825356324456,-0.12292440017073497,-0.13400159349912483
-0.15592712612756598,0.12006637355313599,0.11918619831278865,-0.05641503589185304,-0.004933476975113926,0.15942358988689198,-0.014721831582349076,0.1899537715364148,0.2394601343093914,-0.04795681688052056,0.03743587690574146,-0.027126727272279272,0.03216690196755323,-0.045040420060667774,-0.0457535874437307,0.021881427399747078,-0.0003850306094760336,-0.043614146797647524,0.01496546393740894,0.010226515426897231,0.03950071830966417,-0.034671363125784005,0.1269813579062794,0.015489687548400077,-0.027820841487575465,-0.02872088923988736,-0.07801859421752011,0.05471252811567118,-0.007242432390656917,0.05530270780276647,0.05344781902973228,0.09445875525974468,0.058365728227221414,0.08497519491495464,0.06721832246911064,0.0851673235656909,0.08302048965771602,0.07653407118992628,0.04622596151680247,0.02346300814712976,0.057371449627699356,0.044803667074800435,0.05741717333754215,0.07537415408388781,0.03646222214287631,-0.0739150169178293,-0.11777459400461879,-0.07340555161210863,-0.06960424900753269,-0.07424527339672779,-0.06674493451403846,-0.0691073417406341,-0.026489594836267838,-0.053212165673216294,-0.03633804273860039,-0.01845823437065608,-0.021610475117875533,-0.11358845268826903,-0.08734878441827193,0.7473901041725133,0.07517744294978457,0.06600689221647549,-0.017187722669145145,-0.05780272609892767,-0.19155144141201547,0.00639250206985309,-0.11073256185424846,0.0274906577850893,-0.021966444065765756,-0.046907975388097656,0.06886472561170887,0.05183896497445162,-0.30319843598963814,-0.12846080876075,-0.13238585028611544
-0.12372074653085108,0.16674854427909347,0.12676566466231387,-0.01055619742122832,0.010446789099199716,0.18573087842052705,-0.07425375334666262,0.19871600361955666,0.270537207637751,-0.055418104261790224,-0.01865781916232445,-0.04061366824457957,0.07325183454694728,-0.03059666149332141,-0.0384392972094445,-0.004632740619144982,-0.0022014140444016617,-0.051824391432077455,0.024655959292981366,0.014519725750181345,0.04696628730087116,-0.023045773556562565,0.14481519369924467,-0.01776783834137985,-0.021308428345455155,-0.016015026155282053,-0.07737169041533726,0.048209307204775786,-0.0016338839777541025,0.059860205144182665,0.05801171356000323,0.09366918724431617,0.06202078030717284,0.08037424047551112,0.06395076055113125,0.08132203341659261,0.08096424623902632,0.08408438037125399,0.05533491462225415,0.023212963071955528,0.05926976732041589,0.043877086496096895,0.05563625369659231,0.07415201663691484,0.03589003496742604,-0.07234253633588993,-0.11680464798340918,-0.07396055400107784,-0.07852893149562842,-0.07207862042871652,-0.06238065580470614,-0.06801001431302751,-0.028597492774028344,-0.05596525231947003,-0.025573454941711954,-0.015686908699162394,-0.022214091674665842,-0.114087188554059,-0.08991570863611317,0.7480425301389663,0.07309020336479766,0.05063651216985343,-0.0243663603893306,-0.041833595272790514,-0.16857118549278993,0.01170730545166021,-0.09991189760086472,0.03946772297994294,-0.021111011689115833,-0.04604428130141086,0.049286772872044526,0.06742558152210198,-0.3203686785742982,-0.12797790710366602,-0.13534733559427328
-0.0868794899080238,0.2110966818708605,0.13993471677655545,0.018896638503090812,0.023454323103104247,0.1972076791899957,-0.14263901246042254,0.18715417192203065,0.28866394149268537,-0.05822328507187152,-0.07717100517275782,-0.05089821558569707,0.11946713457443203,-0.013636029076987688,-0.02606491308095138,-0.02405448738197158,-0.004502810571890448,-0.06031130017962166,0.03788525475048077,0.014619518484892513,0.0476748451096346,-0.00852818376770903,0.16448763436410552,-0.04054683877077325,0.00039032573092823153,-0.0017561026506378585,-0.07767000768467319,0.04247075830073643,-0.003247355812484476,0.06250821514827065,0.06354878325202462,0.09104332792145298,0.06859718734073927,0.079039645583037,0.06094660188016732,0.0774908233030841,0.08288638074566035,0.09169442054735644,0.06392136425286177,0.02421162622230444,0.06190611478058761,0.04460142211401452,0.05433044458623637,0.07272612987479354,0.035657282310758265,-0.06803488316875728,-0.11423988454126853,-0.0708920014596146,-0.09017732268273225,-0.0695050678499647,-0.053120273449524524,-0.06792710148547398,-0.03102082928821151,-0.05629053684023222,-0.01709762062076986,-0.011809640718995151,-0.02297136153574919,-0.11335719398078073,-0.09161471611928104,0.7402340613781212,0.07370914136765261,0.025657389765217475,-0.032067581424690295,-0.025847379382981206,-0.1445919929071871,0.027524272505673575,-0.08772425272937268,0.054661941744425735,-0.020938153923833858,-0.03932353132074945,0.02498787026431537,0.07674625426564508,-0.3534688558796578,-0.12026663539404736,-0.13516641224424472
-0.052831825511675756,0.2488490528943894,0.15745352972181859,0.02627316153399739,0.030626271986307185,0.19423530640858822,-0.21215621556771835,0.1588810506762186,0.28649508085973363,-0.05740885044421484,-0.1287570495253064,-0.05918190585569272,0.16437160039831988,0.0018864110749218232,-0.016998421341480996,-0.033154948358296354,-0.008411858736339872,-0.0687447303018337,0.04800583312433637,0.009736974679377508,0.038761206949957105,0.004214763213540307,0.17970243115581375,-0.045960262279045816,0.031406247104395435,0.009621715061073566,-0.08012347449649532,0.03915701813062877,-0.008996217540440554,0.062293603710336654,0.06942808101343045,0.08810387746996395,0.07643874599948852,0.08087126559104618,0.0590982400330321,0.0749698762938581,0.08811824845925675,0.09780193533710924,0.07104866986495695,0.02650021712009054,0.06496830174769952,0.04653420364336969,0.05364045224311276,0.07173876514295108,0.036375859558881896,-0.062175869969683245,-0.11182442122005073,-0.06591023867093135,-0.10171294638700223,-0.06600850166560096,-0.03767740985939674,-0.0699719608417694,-0.033767806367648034,-0.054240659900652965,-0.013438554921427676,-0.008056994423540909,-0.024133651840299836,-0.11307047432144635,-0.09413078319431199,0.7208301099686175,0.07750603108850573,-0.002522706732908775,-0.040504634083483815,-0.012619750939450114,-0.11998756355043783,0.04628424664996511,-0.07562065683689206,0.06295332395084097,-0.020440152075618778,-0.028290870800236068,0.0015094876853939398,0.08095332938669852,-0.3946745177886145,-0.10356761562686023,-0.12414144563119053
-0.028690750521765063,0.27299955142808485,0.1723804960890175,0.011843152996926842,0.030701439524410623,0.1758046015549588,-0.27516372167325975,0.11919444199907836,0.2606345419533216,-0.052142021357622304,-0.16753997139064222,-0.06855506733970018,0.20159438790914286,0.014242307547296051,-0.018419781596931806,-0.03161150786466027,-0.014582793414260331,-0.07593946447203287,0.05079501381022222,-3.562003062174135e-05,0.02201233096790356,0.012879713726265729,0.18274098934294136,-0.0335815296095594,0.06532747996604371,0.01284290512851205,-0.08347066253232344,0.03736137090426139,-0.012772431548884078,0.05942236241358079,0.07489250138418824,0.08610340682800677,0.08375828983051392,0.08545425954191876,0.05944772888315364,0.07423179425425575,0.09454708961656344,0.10141463114570448,0.0756681593906322,0.028940230931460365,0.06829170102491267,0.04852269969278822,0.053364674203723705,0.07160352323631314,0.037746620517427165,-0.05611020241958023,-0.11089841779945374,-0.06165737482844602,-0.11007237687287336,-0.061383345817140444,-0.015317706385640173,-0.07352309479856145,-0.03673336334013347,-0.050891478474618446,-0.015713713167699178,-0.005540557765884413,-0.025497510816073043,-0.11426034504275642,-0.09720894348023358,0.6851931085783147,0.08237690955543175,-0.027051479587647753,-0.04858625425703916,-0.004050038641228104,-0.0944350248395347,0.059502264669529126,-0.06420104202972393,0.05351845635938146,-0.01846144964258184,-0.016120528534718126,-0.015534426555799619,0.08191520120158025,-0.4336400378414529,-0.07875584258558277,-0.09921306616721876
-0.016737173082291723,0.28030815050004654,0.17914874647140766,-0.02281823873944322,0.024891123362409284,0.14083760954145452,-0.3204485150260241,0.07421660177904965,0.21384328564564803,-0.0428076513870323,-0.18989819277995412,-0.08195314204989224,0.22193084024657372,0.022286413816224315,-0.032457647681294555,-0.022463763287621896,-0.020723177881823762,-0.07979203206569019,0.04582209069188825,-0.013856635856246413,0.002410999183947049,0.01794512075282395,0.16839994028751037,-0.00834010460821255,0.09550760485818643,0.004840336786112287,-0.08414764610066994,0.034901432478559924,-0.01049229973892618,0.056110154561314296,0.07915965931397395,0.08564974309579099,0.08929500561605819,0.09191628570234067,0.06235225713019554,0.07503998306178672,0.09944175905357244,0.10276554397022397,0.0754079649306123,0.03012388756677864,0.07198604081812388,0.0496093765053367,0.05336290066715077,0.0722678420366456,0.03875300567836604,-0.05152444451558941,-0.111566180366903,-0.06006499722325864,-0.11373333560462051,-0.05634931716414979,0.013766523298834932,-0.07646856643273359,-0.03961220035570784,-0.047534472427663954,-0.023183569387867503,-0.0047923467809538045,-0.026633050536956637,-0.11656097173471042,-0.0994974454048748,0.6289551868648718,0.08342978997024253,-0.04262963186587598,-0.055879960799285255,0.0002928221771669737,-0.06879370292924814,0.061786547088900745,-0.054291575506598244,0.021337048183171725,-0.014028228314479363,-0.006146042144397845,-0.02336619032412579,0.0790817284274078,-0.4646437391363243,-0.050602911258988525,-0.06522459766724606
-0.01757656323628698,0.27344002825601366,0.1829366507268837,-0.0766617729288635,0.016167654570308,0.09552857596054776,-0.3354461487477878,0.031048812048196095,0.1548851587609903,-0.03033958660081182,-0.1931437363575064,-0.09857201243857905,0.21921432538572905,0.026101817705490582,-0.055298996169010683,-0.009370272705276017,-0.023601301538848207,-0.07927443929962924,0.0346782336453656,-0.0317338473054436,-0.014453209632541375,0.020323055290742298,0.13953067607642233,0.022764582434756542,0.11671445242371781,-0.011622146101195385,-0.07836581448499114,0.03012405784173955,-0.0018182844181395819,0.05494622130539906,0.08181811721856747,0.0864272933650525,0.09266671917701441,0.09882240946953613,0.0669724044820943,0.07657079556607038,0.10091710293557132,0.10243158157477217,0.06650813423850488,0.028871203172919246,0.07601301629626267,0.049631163007620493,0.05370858389692046,0.0732042593445471,0.0388665035681921,-0.04947183360718224,-0.11292286345873537,-0.06089798500074717,-0.11361618913748112,-0.052333356016512345,0.04828794688227145,-0.07670322265966929,-0.042134905205212236,-0.0446675247669025,-0.03349914716554303,-0.0057903189010154454,-0.02753211427241334,-0.11819865905768373,-0.10032818360200597,0.5513039394416837,0.07713973252356565,-0.045253762385738305,-0.06294615478278615,0.0030310589385466047,-0.044230600107983964,0.05328262173035814,-0.045992107407688665,-0.03358447197934811,-0.007772288914729419,-0.002108906932590915,-0.02237585318175006,0.07036746089703627,-0.48373524461618655,-0.023348941749693097,-0.03363833473643557
-0.03315861106141116,0.25240645870350487,0.19797342380383165,-0.14379679384684518,0.006584963205925609,0.0503641601941035,-0.3172030186161659,-0.0027039828484439754,0.09264096103447683,-0.014720397204225799,-0.17747065834435577,-0.11271777533890492,0.19543473538406142,0.028184661716770032,-0.08160345385042372,0.007063523978567798,-0.021570414066478527,-0.07522129155035695,0.020524840072160155,-0.054819061052503226,-0.023933834447064428,0.020507133813314482,0.10592595034981911,0.05272266420560512,0.12836710244980976,-0.02843645205406231,-0.06559162968120724,0.022900307714537882,0.011183191743136867,0.057250548626712194,0.08303497358566603,0.08745873195471587,0.09417068807766416,0.10416555572965014,0.07208987011406875,0.07754713727968243,0.09880615956828898,0.10060047998561605,0.04470972004344764,0.02443937199543289,0.07983142546167876,0.04935547058701106,0.05436520608511464,0.07382694623255004,0.038600421843597243,-0.049686812733876415,-0.11403974912816435,-0.06215867326756713,-0.11171942194286097,-0.05054878510046712,0.08578615671089385,-0.07388996225547984,-0.044251316472837754,-0.04153256779908754,-0.043831763775489974,-0.008117654031102706,-0.028657518589351505,-0.11635084107624805,-0.10002828811359003,0.4572862989084059,0.06469818481664846,-0.034993749046889344,-0.06989608340673464,0.006860376778885735,-0.023020713206703403,0.03901404270826214,-0.03907560928480114,-0.1077321132403869,-0.0022713451529191575,-0.004920147383477347,-0.014425169728432663,0.057293981858967724,-0.48704980771189826,0.002378946072238486,-0.015943952286818136
-0.0598918461041022,0.21150125705450673,0.23518161076075972,-0.20975574028258814,-0.004622488533137292,0.013120141273933572,-0.2750635359378042,-0.021475272318074667,0.031714915372097585,0.0035411017376821285,-0.147233051194872,-0.11641506557071502,0.15693619407580406,0.031934859898065215,-0.10932478471178209,0.027125333700433685,-0.014529121532755929,-0.06954810441399828,0.007425814631432437,-0.08201909027506571,-0.02316604132356548,0.01845566223611428,0.07813876072822667,0.07558195735708173,0.13262403915767484,-0.0372934784154596,-0.049687937761713485,0.014223531944935752,0.024882619003288253,0.0630579909140957,0.08326539175934677,0.0879041977439069,0.09469909822330791,0.10473615964090599,0.07646178767780121,0.07725099401377045,0.09411457034164061,0.09710360837276955,0.00614935207220213,0.017302151590186998,0.08269030453350912,0.049987392888728666,0.05506915087680575,0.07399288216984312,0.038834047384411874,-0.0512685247906325,-0.11474303400333605,-0.06169959302305822,-0.10912249570266994,-0.05144019971641654,0.12305216600005464,-0.06983421859683342,-0.046130831613238554,-0.03685364637030342,-0.05243168050565994,-0.010636426324534431,-0.030483485334034777,-0.10786406427183368,-0.09934856410080814,0.35627672016959566,0.04936953993648663,-0.016845137434825852,-0.076447859165648,0.013259291529972739,-0.008519210565689828,0.023686042795373452,-0.032729783471457996,-0.19231481110700605,0.00017086250843401096,-0.010474925075481423,-0.003415417342534477,0.04598215825470375,-0.4757422638093895,0.02656761718526618,-0.017378842234653274
-0.08632274302294124,0.1468242964293286,0.29169654675346823,-0.2576995080038088,-0.018668547338504426,-0.012800623427202673,-0.2218251614737055,-0.025078608932811886,-0.02514089827729482,0.022133510318948835,-0.10969000903328227,-0.10262637164273447,0.11183884660923915,0.038997611432553425,-0.1381113161537127,0.047483105222702826,-0.004625565331548009,-0.06518489330789506,-0.0021429977496840724,-0.108005479873102,-0.012450710572998736,0.01341467698784149,0.06427799522254063,0.08710265780256998,0.13068407136186178,-0.03396762256182417,-0.035884765286229914,0.0055540194675358645,0.03595202515841811,0.07059176662751276,0.0830196643551856,0.08722226775867525,0.09580728429121699,0.09620640436238548,0.07880214376625705,0.07613267693286696,0.08827835041558041,0.09165834489521352,-0.0512842307260325,0.009247828378420864,0.08387009402512757,0.05220743583804033,0.05565071152294987,0.07424365413810441,0.039661405984633746,-0.05339231023331936,-0.11562516104234878,-0.058706994610310786,-0.1059575759845521,-0.05452017744384878,0.15710913934940302,-0.06664557836625415,-0.048019926548351966,-0.030050242214258616,-0.05921603232687221,-0.011525117745555868,-0.033154857874925336,-0.0899886859393147,-0.09902413387111118,0.25845910708918807,0.034216550708106364,0.003921312852155023,-0.08303451169716847,0.022903237427491674,-0.0007878847212799966,0.008152163023581127,-0.024674317273076174,-0.27457609790029525,-0.0006304500762044363,-0.01463679720640021,0.0037035144323561697,0.04214895542748043,-0.4546338264258086,0.047412698405073894,-0.03581669154017414
-0.1019594598880545,0.06106463544373941,0.3514684569361045,-0.2778850845821748,-0.03331121378605584,-0.02799257830161339,-0.16798497686906472,-0.017762932798924935,-0.07404298032189527,0.03752917785831672,-0.07369475671114856,-0.06898445442621659,0.06815928278862493,0.04821568033996393,-0.163910874758866,0.06225502104232061,0.00453361782308942,-0.06530727742647757,-0.00749824304955915,-0.12654451801374883,0.004615670400417993,0.005028309919017704,0.06906528853974758,0.08568099100100501,0.12340095492559833,-0.019591268976159704,-0.026871151065729126,-0.0008897650367950538,0.04316556163794516,0.07650423765935743,0.08249952344906675,0.08482923970846268,0.09895937651645681,0.07437117875009525,0.07874494827667788,0.07473470689429207,0.08273452843193574,0.08455713487993977,-0.1259716477844388,0.00212381503081438,0.08265957686593484,0.05597763936890965,0.056386142531906436,0.07539097693509222,0.03973474861991588,-0.055501623358549065,-0.11751834274178317,-0.05454181194566246,-0.1023659456663879,-0.05827764692323588,0.1860655796163071,-0.06465162742487107,-0.05014577659910502,-0.021805362497760716,-0.06483097722543352,-0.009637634438928289,-0.03617152392381398,-0.06052178253238483,-0.09904291446389996,0.17262934633639143,0.023481960045902417,0.024816299879598658,-0.09057098440226363,0.03506520875039876,0.004848495218413684,-0.009324790231041602,-0.01253163476046354,-0.3435609671492998,-0.0030924700636013047,-0.016903591284360697,0.001844456499724756,0.04603713130901699,-0.42588676249918556,0.06220321522764427,-0.0639923704658342
-0.10439624845651363,-0.03498658848636005,0.39425086820900757,-0.27092282215986896,-0.04327820643389868,-0.03442978650671957,-0.12201745420555987,-0.003066975276993844,-0.11021263464688574,0.04649724508513864,-0.046049641442263256,-0.021252354585726496,0.03084143892791913,0.05774912015739431,-0.18213966555855088,0.0670173517124224,0.0116884309259635,-0.07128142630035855,-0.009271791216692082,-0.13464383764147814,0.02335167253186632,-0.0053068628923199634,0.09107886815832378,0.0725231056384571,0.112281910752968,-0.00034406060499603264,-0.022109236937882804,-0.0020033087654197645,0.04688959662990133,0.07820521533679625,0.08128410108062745,0.08058397883701052,0.10421269097179442,0.03577701241454423,0.07691150572294791,0.07287403788073077,0.07865520874425103,0.07717239162466616,-0.21208784826120897,-0.0030752228730569486,0.078779476122115,0.061174672072206504,0.0577895855649353,0.07754431079388435,0.03648116618185426,-0.05722904381145129,-0.120824505322647,-0.05193931917333486,-0.09883236893640754,-0.06091071469089125,0.20936435977390921,-0.06278869672494967,-0.05273446972183901,-0.013718304527727154,-0.06959353290391071,-0.005547908044004568,-0.03848905400743918,-0.017949361478929338,-0.09867877374000544,0.10472587592802579,0.021488443136786217,0.045315170932150095,-0.10003454161770808,0.046755128136938495,0.012475446804222523,-0.03159856274854034,0.0039083708566201025,-0.3945769544095061,-0.005274610150982295,-0.01770382932191572,-0.007229663282154353,0.051274339919507694,-0.3889713950729765,0.06846735923703062,-0.09235393716846002
-0.09940475159361467,-0.12222799288348501,0.40474191418777994,-0.24345061775286853,-0.04489977783122834,-0.03462757794714477,-0.08763211631681211,0.018725099717937344,-0.1290538674523688,0.04845406325222534,-0.027718768757308276,0.02926779988027206,0.004483778157155172,0.06673363818897493,-0.19582096034150803,0.06066052080717821,0.018664937805356663,-0.08145511233420405,-0.009660219393685776,-0.13350353025139022,0.039924293832619306,-0.015148932268425619,0.12108383891260055,0.05075104252499407,0.09947129673197441,0.015054058510300727,-0.020271902135930997,0.00382371413076088,0.04817415212005682,0.07511954291019929,0.07902769605923743,0.07538212376732145,0.10966756385135756,-0.02180524159488928,0.07370258242987893,0.0700585207033263,0.07693663300073861,0.07123341185211995,-0.30189963436808237,-0.006128931185992226,0.07298444414694771,0.06760752306035622,0.059801493521505766,0.08000985962105311,0.02658825312804236,-0.05819276652277844,-0.1249280086200443,-0.05289860824370238,-0.09635246419941595,-0.06150154098405748,0.22741021398912714,-0.06060430735690413,-0.055848524910069114,-0.0074824200701545385,-0.07374187002230562,-0.0006946249974931207,-0.03929930595275141,0.03777095744526621,-0.09759956868428435,0.05665760216338933,0.029634272648421778,0.06646463399977753,-0.11271022877065368,0.05486608035829044,0.02212358599524622,-0.06244743553186172,0.022532486889524084,-0.42952278894322815,-0.006618349090764641,-0.01589487517326338,-0.017679451427177306,0.0491383110314062,-0.34383340368323256,0.06627786593459623,-0.11287664783771421
-0.09701125996250248,-0.18318176612185066,0.37780817506121156,-0.20354318680713349,-0.03882662122571623,-0.0355302746444186,-0.06095837705836926,0.047957696741833145,-0.12809795629330795,0.045925948996780264,-0.016593943195133354,0.0727188720141092,-0.004266053666318492,0.07331607247301608,-0.21242684290088643,0.045983711385864656,0.027332272962415527,-0.09057399945856559,-0.010238084078289744,-0.12653491515145732,0.05219168181334466,-0.02247162072579445,0.14627126188821915,0.025025212105658556,0.0885411972431831,0.019770722671081153,-0.020143230493418984,0.01464167662461191,0.04880708618033924,0.06754595300241872,0.0761438936420461,0.07060177947796675,0.11177121747541252,-0.09773340803688124,0.06944075687909534,0.06556327422946662,0.0781740517285382,0.06769348119200247,-0.388658374393231,-0.007434971208559515,0.06667177092217369,0.07430231119481301,0.06164238347124573,0.08215907766712238,0.006601350768337899,-0.05824801104711254,-0.12810102474607568,-0.05792054463608454,-0.09595692355840693,-0.06010423373219438,0.2408820746219713,-0.05915182573147057,-0.05919350677922949,-0.004336316801465456,-0.07796118840979771,0.0038350095325391798,-0.03859033668882461,0.10457332635246314,-0.09623407904446912,0.026637026307275158,0.04659901044030745,0.089512973697502,-0.13015576842024407,0.057797311895561365,0.03261446879016572,-0.10521861987331871,0.04006848546045422,-0.45462907537085706,-0.008576011729219624,-0.008801633760824656,-0.023735690892640493,0.036572815258671953,-0.2932200515675599,0.05917035923785008,-0.12245855013725145
